3997.65486	0.00577
3995.59527	0.00592
3993.53569	0.00586
3991.47610	0.00603
3989.41652	0.00640
3987.35693	0.00664
3985.29735	0.00658
3983.23776	0.00624
3981.17817	0.00575
3979.11859	0.00535
3977.05900	0.00522
3974.99942	0.00526
3972.93983	0.00547
3970.88025	0.00583
3968.82066	0.00592
3966.76108	0.00564
3964.70149	0.00537
3962.64191	0.00526
3960.58232	0.00508
3958.52274	0.00494
3956.46315	0.00493
3954.40357	0.00483
3952.34398	0.00465
3950.28440	0.00460
3948.22481	0.00491
3946.16523	0.00545
3944.10564	0.00574
3942.04606	0.00569
3939.98647	0.00560
3937.92689	0.00571
3935.86730	0.00588
3933.80772	0.00594
3931.74813	0.00596
3929.68855	0.00617
3927.62896	0.00666
3925.56937	0.00712
3923.50979	0.00712
3921.45020	0.00655
3919.39062	0.00560
3917.33103	0.00479
3915.27145	0.00422
3913.21186	0.00388
3911.15228	0.00422
3909.09269	0.00509
3907.03311	0.00561
3904.97352	0.00548
3902.91394	0.00530
3900.85435	0.00568
3898.79477	0.00633
3896.73518	0.00643
3894.67560	0.00587
3892.61601	0.00543
3890.55643	0.00537
3888.49684	0.00510
3886.43726	0.00462
3884.37767	0.00426
3882.31809	0.00412
3880.25850	0.00449
3878.19892	0.00526
3876.13933	0.00584
3874.07974	0.00598
3872.02016	0.00572
3869.96057	0.00529
3867.90099	0.00494
3865.84140	0.00476
3863.78182	0.00496
3861.72223	0.00558
3859.66265	0.00591
3857.60306	0.00541
3855.54348	0.00432
3853.48389	0.00378
3851.42431	0.00465
3849.36472	0.00529
3847.30514	0.00485
3845.24555	0.00421
3843.18597	0.00434
3841.12638	0.00500
3839.06680	0.00503
3837.00721	0.00414
3834.94763	0.00326
3832.88804	0.00291
3830.82846	0.00308
3828.76887	0.00347
3826.70929	0.00360
3824.64970	0.00332
3822.59012	0.00304
3820.53053	0.00346
3818.47094	0.00435
3816.41136	0.00486
3814.35177	0.00513
3812.29219	0.00531
3810.23260	0.00521
3808.17302	0.00507
3806.11343	0.00489
3804.05385	0.00449
3801.99426	0.00415
3799.93468	0.00391
3797.87509	0.00359
3795.81551	0.00369
3793.75592	0.00442
3791.69634	0.00506
3789.63675	0.00505
3787.57717	0.00467
3785.51758	0.00478
3783.45800	0.00548
3781.39841	0.00585
3779.33883	0.00551
3777.27924	0.00500
3775.21966	0.00462
3773.16007	0.00446
3771.10049	0.00445
3769.04090	0.00433
3766.98132	0.00456
3764.92173	0.00541
3762.86214	0.00602
3760.80256	0.00575
3758.74297	0.00516
3756.68339	0.00505
3754.62380	0.00527
3752.56422	0.00566
3750.50463	0.00612
3748.44505	0.00595
3746.38546	0.00535
3744.32588	0.00564
3742.26629	0.00660
3740.20671	0.00689
3738.14712	0.00603
3736.08754	0.00473
3734.02795	0.00408
3731.96837	0.00396
3729.90878	0.00418
3727.84920	0.00489
3725.78961	0.00542
3723.73003	0.00505
3721.67044	0.00437
3719.61086	0.00442
3717.55127	0.00497
3715.49169	0.00533
3713.43210	0.00540
3711.37251	0.00573
3709.31293	0.00619
3707.25334	0.00639
3705.19376	0.00604
3703.13417	0.00576
3701.07459	0.00617
3699.01500	0.00654
3696.95542	0.00618
3694.89583	0.00554
3692.83625	0.00517
3690.77666	0.00528
3688.71708	0.00582
3686.65749	0.00648
3684.59791	0.00663
3682.53832	0.00624
3680.47874	0.00568
3678.41915	0.00512
3676.35957	0.00517
3674.29998	0.00611
3672.24040	0.00673
3670.18081	0.00646
3668.12123	0.00623
3666.06164	0.00674
3664.00206	0.00750
3661.94247	0.00787
3659.88289	0.00802
3657.82330	0.00819
3655.76371	0.00836
3653.70413	0.00865
3651.64454	0.00894
3649.58496	0.00901
3647.52537	0.00915
3645.46579	0.00940
3643.40620	0.00973
3641.34662	0.01040
3639.28703	0.01124
3637.22745	0.01185
3635.16786	0.01200
3633.10828	0.01143
3631.04869	0.01052
3628.98911	0.01083
3626.92952	0.01270
3624.86994	0.01414
3622.81035	0.01427
3620.75077	0.01372
3618.69118	0.01353
3616.63160	0.01409
3614.57201	0.01507
3612.51243	0.01608
3610.45284	0.01645
3608.39326	0.01603
3606.33367	0.01563
3604.27408	0.01605
3602.21450	0.01701
3600.15491	0.01805
3598.09533	0.01878
3596.03574	0.01911
3593.97616	0.01942
3591.91657	0.01983
3589.85699	0.02000
3587.79740	0.02030
3585.73782	0.02070
3583.67823	0.02110
3581.61865	0.02151
3579.55906	0.02172
3577.49948	0.02204
3575.43989	0.02287
3573.38031	0.02401
3571.32072	0.02503
3569.26114	0.02569
3567.20155	0.02586
3565.14197	0.02569
3563.08238	0.02585
3561.02280	0.02644
3558.96321	0.02701
3556.90363	0.02727
3554.84404	0.02714
3552.78446	0.02707
3550.72487	0.02753
3548.66528	0.02828
3546.60570	0.02919
3544.54611	0.03036
3542.48653	0.03137
3540.42694	0.03190
3538.36736	0.03226
3536.30777	0.03267
3534.24819	0.03290
3532.18860	0.03264
3530.12902	0.03200
3528.06943	0.03180
3526.00985	0.03251
3523.95026	0.03377
3521.89068	0.03496
3519.83109	0.03562
3517.77151	0.03588
3515.71192	0.03629
3513.65234	0.03682
3511.59275	0.03714
3509.53317	0.03732
3507.47358	0.03731
3505.41400	0.03728
3503.35441	0.03776
3501.29483	0.03855
3499.23524	0.03892
3497.17565	0.03894
3495.11607	0.03904
3493.05648	0.03931
3490.99690	0.03950
3488.93731	0.03961
3486.87773	0.04006
3484.81814	0.04057
3482.75856	0.04047
3480.69897	0.04033
3478.63939	0.04077
3476.57980	0.04151
3474.52022	0.04229
3472.46063	0.04282
3470.40105	0.04297
3468.34146	0.04309
3466.28188	0.04312
3464.22229	0.04294
3462.16271	0.04300
3460.10312	0.04335
3458.04354	0.04364
3455.98395	0.04394
3453.92437	0.04456
3451.86478	0.04512
3449.80520	0.04511
3447.74561	0.04487
3445.68603	0.04476
3443.62644	0.04478
3441.56685	0.04523
3439.50727	0.04600
3437.44768	0.04663
3435.38810	0.04693
3433.32851	0.04700
3431.26893	0.04742
3429.20934	0.04807
3427.14976	0.04839
3425.09017	0.04847
3423.03059	0.04867
3420.97100	0.04926
3418.91142	0.04963
3416.85183	0.04948
3414.79225	0.04974
3412.73266	0.05050
3410.67308	0.05122
3408.61349	0.05204
3406.55391	0.05278
3404.49432	0.05298
3402.43474	0.05297
3400.37515	0.05315
3398.31557	0.05362
3396.25598	0.05463
3394.19640	0.05580
3392.13681	0.05635
3390.07723	0.05642
3388.01764	0.05667
3385.95805	0.05727
3383.89847	0.05796
3381.83888	0.05862
3379.77930	0.05935
3377.71971	0.05997
3375.66013	0.06036
3373.60054	0.06097
3371.54096	0.06198
3369.48137	0.06281
3367.42179	0.06332
3365.36220	0.06400
3363.30262	0.06495
3361.24303	0.06575
3359.18345	0.06645
3357.12386	0.06726
3355.06428	0.06805
3353.00469	0.06887
3350.94511	0.06986
3348.88552	0.07096
3346.82594	0.07194
3344.76635	0.07290
3342.70677	0.07411
3340.64718	0.07524
3338.58760	0.07626
3336.52801	0.07765
3334.46842	0.07934
3332.40884	0.08124
3330.34925	0.08308
3328.28967	0.08434
3326.23008	0.08561
3324.17050	0.08765
3322.11091	0.08989
3320.05133	0.09165
3317.99174	0.09305
3315.93216	0.09468
3313.87257	0.09671
3311.81299	0.09876
3309.75340	0.10064
3307.69382	0.10252
3305.63423	0.10455
3303.57465	0.10692
3301.51506	0.10941
3299.45548	0.11146
3297.39589	0.11311
3295.33631	0.11503
3293.27672	0.11741
3291.21714	0.11979
3289.15755	0.12161
3287.09797	0.12298
3285.03838	0.12442
3282.97880	0.12587
3280.91921	0.12701
3278.85962	0.12761
3276.80004	0.12743
3274.74045	0.12669
3272.68087	0.12585
3270.62128	0.12492
3268.56170	0.12368
3266.50211	0.12218
3264.44253	0.12042
3262.38294	0.11820
3260.32336	0.11582
3258.26377	0.11381
3256.20419	0.11208
3254.14460	0.11020
3252.08502	0.10815
3250.02543	0.10633
3247.96585	0.10482
3245.90626	0.10312
3243.84668	0.10112
3241.78709	0.09912
3239.72751	0.09727
3237.66792	0.09562
3235.60834	0.09422
3233.54875	0.09316
3231.48917	0.09230
3229.42958	0.09108
3227.36999	0.08935
3225.31041	0.08743
3223.25082	0.08544
3221.19124	0.08361
3219.13165	0.08233
3217.07207	0.08169
3215.01248	0.08113
3212.95290	0.08001
3210.89331	0.07843
3208.83373	0.07698
3206.77414	0.07577
3204.71456	0.07462
3202.65497	0.07361
3200.59539	0.07245
3198.53580	0.07121
3196.47622	0.07016
3194.41663	0.06879
3192.35705	0.06704
3190.29746	0.06554
3188.23788	0.06450
3186.17829	0.06349
3184.11871	0.06237
3182.05912	0.06146
3179.99954	0.06056
3177.93995	0.05912
3175.88037	0.05749
3173.82078	0.05609
3171.76119	0.05478
3169.70161	0.05379
3167.64202	0.05329
3165.58244	0.05294
3163.52285	0.05219
3161.46327	0.05098
3159.40368	0.04981
3157.34410	0.04883
3155.28451	0.04774
3153.22493	0.04657
3151.16534	0.04574
3149.10576	0.04527
3147.04617	0.04487
3144.98659	0.04447
3142.92700	0.04425
3140.86742	0.04414
3138.80783	0.04366
3136.74825	0.04275
3134.68866	0.04208
3132.62908	0.04187
3130.56949	0.04192
3128.50991	0.04206
3126.45032	0.04214
3124.39074	0.04199
3122.33115	0.04163
3120.27156	0.04140
3118.21198	0.04159
3116.15239	0.04196
3114.09281	0.04200
3112.03322	0.04185
3109.97364	0.04218
3107.91405	0.04301
3105.85447	0.04355
3103.79488	0.04360
3101.73530	0.04381
3099.67571	0.04431
3097.61613	0.04488
3095.55654	0.04551
3093.49696	0.04609
3091.43737	0.04654
3089.37779	0.04674
3087.31820	0.04675
3085.25862	0.04693
3083.19903	0.04748
3081.13945	0.04805
3079.07986	0.04825
3077.02028	0.04819
3074.96069	0.04817
3072.90111	0.04810
3070.84152	0.04771
3068.78194	0.04722
3066.72235	0.04665
3064.66276	0.04591
3062.60318	0.04548
3060.54359	0.04530
3058.48401	0.04480
3056.42442	0.04385
3054.36484	0.04278
3052.30525	0.04195
3050.24567	0.04119
3048.18608	0.04023
3046.12650	0.03941
3044.06691	0.03882
3042.00733	0.03787
3039.94774	0.03666
3037.88816	0.03587
3035.82857	0.03552
3033.76899	0.03517
3031.70940	0.03466
3029.64982	0.03407
3027.59023	0.03344
3025.53065	0.03275
3023.47106	0.03209
3021.41148	0.03174
3019.35189	0.03153
3017.29231	0.03095
3015.23272	0.03028
3013.17313	0.02989
3011.11355	0.02948
3009.05396	0.02918
3006.99438	0.02936
3004.93479	0.02966
3002.87521	0.02969
3000.81562	0.02983
2998.75604	0.03046
2996.69645	0.03115
2994.63687	0.03147
2992.57728	0.03173
2990.51770	0.03216
2988.45811	0.03279
2986.39853	0.03360
2984.33894	0.03420
2982.27936	0.03444
2980.21977	0.03451
2978.16019	0.03448
2976.10060	0.03443
2974.04102	0.03454
2971.98143	0.03503
2969.92185	0.03546
2967.86226	0.03534
2965.80268	0.03497
2963.74309	0.03474
2961.68351	0.03461
2959.62392	0.03440
2957.56433	0.03383
2955.50475	0.03313
2953.44516	0.03296
2951.38558	0.03325
2949.32599	0.03358
2947.26641	0.03413
2945.20682	0.03505
2943.14724	0.03603
2941.08765	0.03694
2939.02807	0.03790
2936.96848	0.03873
2934.90890	0.03930
2932.84931	0.03992
2930.78973	0.04022
2928.73014	0.03969
2926.67056	0.03895
2924.61097	0.03850
2922.55139	0.03797
2920.49180	0.03702
2918.43222	0.03562
2916.37263	0.03418
2914.31305	0.03303
2912.25346	0.03176
2910.19388	0.03015
2908.13429	0.02890
2906.07471	0.02843
2904.01512	0.02821
2901.95553	0.02771
2899.89595	0.02705
2897.83636	0.02652
2895.77678	0.02623
2893.71719	0.02611
2891.65761	0.02602
2889.59802	0.02577
2887.53844	0.02542
2885.47885	0.02527
2883.41927	0.02544
2881.35968	0.02564
2879.30010	0.02578
2877.24051	0.02591
2875.18093	0.02570
2873.12134	0.02524
2871.06176	0.02487
2869.00217	0.02445
2866.94259	0.02375
2864.88300	0.02305
2862.82342	0.02264
2860.76383	0.02242
2858.70425	0.02235
2856.64466	0.02243
2854.58508	0.02250
2852.52549	0.02251
2850.46590	0.02236
2848.40632	0.02172
2846.34673	0.02079
2844.28715	0.01995
2842.22756	0.01925
2840.16798	0.01873
2838.10839	0.01842
2836.04881	0.01821
2833.98922	0.01810
2831.92964	0.01827
2829.87005	0.01850
2827.81047	0.01838
2825.75088	0.01800
2823.69130	0.01770
2821.63171	0.01764
2819.57213	0.01775
2817.51254	0.01769
2815.45296	0.01761
2813.39337	0.01769
2811.33379	0.01767
2809.27420	0.01740
2807.21462	0.01695
2805.15503	0.01672
2803.09545	0.01677
2801.03586	0.01663
2798.97628	0.01625
2796.91669	0.01598
2794.85710	0.01592
2792.79752	0.01605
2790.73793	0.01619
2788.67835	0.01611
2786.61876	0.01593
2784.55918	0.01567
2782.49959	0.01532
2780.44001	0.01505
2778.38042	0.01486
2776.32084	0.01463
2774.26125	0.01448
2772.20167	0.01444
2770.14208	0.01436
2768.08250	0.01421
2766.02291	0.01408
2763.96333	0.01388
2761.90374	0.01347
2759.84416	0.01306
2757.78457	0.01308
2755.72499	0.01340
2753.66540	0.01339
2751.60582	0.01302
2749.54623	0.01273
2747.48665	0.01253
2745.42706	0.01223
2743.36747	0.01191
2741.30789	0.01174
2739.24830	0.01176
2737.18872	0.01201
2735.12913	0.01224
2733.06955	0.01217
2731.00996	0.01180
2728.95038	0.01157
2726.89079	0.01165
2724.83121	0.01163
2722.77162	0.01115
2720.71204	0.01059
2718.65245	0.01044
2716.59287	0.01061
2714.53328	0.01069
2712.47370	0.01060
2710.41411	0.01059
2708.35453	0.01059
2706.29494	0.01053
2704.23536	0.01055
2702.17577	0.01046
2700.11619	0.01027
2698.05660	0.01014
2695.99702	0.01015
2693.93743	0.01019
2691.87785	0.01003
2689.81826	0.00977
2687.75867	0.00979
2685.69909	0.01008
2683.63950	0.01021
2681.57992	0.01005
2679.52033	0.00991
2677.46075	0.00994
2675.40116	0.01000
2673.34158	0.00999
2671.28199	0.00990
2669.22241	0.00967
2667.16282	0.00936
2665.10324	0.00927
2663.04365	0.00943
2660.98407	0.00966
2658.92448	0.00987
2656.86490	0.00988
2654.80531	0.00968
2652.74573	0.00958
2650.68614	0.00961
2648.62656	0.00967
2646.56697	0.00973
2644.50739	0.00964
2642.44780	0.00950
2640.38822	0.00958
2638.32863	0.00969
2636.26904	0.00965
2634.20946	0.00948
2632.14987	0.00918
2630.09029	0.00890
2628.03070	0.00880
2625.97112	0.00882
2623.91153	0.00889
2621.85195	0.00904
2619.79236	0.00943
2617.73278	0.00975
2615.67319	0.00939
2613.61361	0.00869
2611.55402	0.00843
2609.49444	0.00880
2607.43485	0.00932
2605.37527	0.00948
2603.31568	0.00926
2601.25610	0.00894
2599.19651	0.00856
2597.13693	0.00809
2595.07734	0.00768
2593.01776	0.00750
2590.95817	0.00759
2588.89859	0.00777
2586.83900	0.00784
2584.77942	0.00782
2582.71983	0.00776
2580.66024	0.00771
2578.60066	0.00758
2576.54107	0.00731
2574.48149	0.00703
2572.42190	0.00678
2570.36232	0.00658
2568.30273	0.00655
2566.24315	0.00675
2564.18356	0.00699
2562.12398	0.00713
2560.06439	0.00710
2558.00481	0.00693
2555.94522	0.00679
2553.88564	0.00675
2551.82605	0.00667
2549.76647	0.00656
2547.70688	0.00659
2545.64730	0.00676
2543.58771	0.00676
2541.52813	0.00675
2539.46854	0.00690
2537.40896	0.00674
2535.34937	0.00632
2533.28979	0.00613
2531.23020	0.00627
2529.17062	0.00641
2527.11103	0.00627
2525.05144	0.00607
2522.99186	0.00611
2520.93227	0.00623
2518.87269	0.00605
2516.81310	0.00565
2514.75352	0.00547
2512.69393	0.00564
2510.63435	0.00576
2508.57476	0.00571
2506.51518	0.00574
2504.45559	0.00582
2502.39601	0.00577
2500.33642	0.00568
2498.27684	0.00563
2496.21725	0.00543
2494.15767	0.00524
2492.09808	0.00545
2490.03850	0.00586
2487.97891	0.00608
2485.91933	0.00626
2483.85974	0.00647
2481.80016	0.00641
2479.74057	0.00609
2477.68099	0.00603
2475.62140	0.00615
2473.56181	0.00574
2471.50223	0.00526
2469.44264	0.00536
2467.38306	0.00553
2465.32347	0.00562
2463.26389	0.00592
2461.20430	0.00603
2459.14472	0.00566
2457.08513	0.00542
2455.02555	0.00571
2452.96596	0.00604
2450.90638	0.00593
2448.84679	0.00556
2446.78721	0.00538
2444.72762	0.00539
2442.66804	0.00543
2440.60845	0.00565
2438.54887	0.00595
2436.48928	0.00590
2434.42970	0.00546
2432.37011	0.00500
2430.31053	0.00463
2428.25094	0.00459
2426.19136	0.00480
2424.13177	0.00485
2422.07219	0.00497
2420.01260	0.00528
2417.95301	0.00528
2415.89343	0.00492
2413.83384	0.00471
2411.77426	0.00468
2409.71467	0.00483
2407.65509	0.00516
2405.59550	0.00518
2403.53592	0.00485
2401.47633	0.00441
2399.41675	0.00371
2397.35716	0.00368
2395.29758	0.00397
2393.23799	0.00421
2391.17841	0.00449
2389.11882	0.00497
2387.05924	0.00564
2384.99965	0.00627
2382.94007	0.00681
2380.88048	0.00724
2378.82090	0.00758
2376.76131	0.00840
2374.70173	0.00759
2372.64214	0.00751
2370.58256	0.00935
2368.52297	0.00986
2366.46338	0.01040
2364.40380	0.00931
2362.34421	0.00826
2360.28463	0.01010
2358.22504	0.00889
2356.16546	0.00882
2354.10587	0.00887
2352.04629	0.00857
2349.98670	0.01282
2347.92712	0.01147
2345.86753	0.00950
2343.80795	0.01127
2341.74836	0.00839
2339.68878	0.00733
2337.62919	0.00697
2335.56961	0.00814
2333.51002	0.01390
2331.45044	0.01506
2329.39085	0.01509
2327.33127	0.01010
2325.27168	0.00653
2323.21210	0.00379
2321.15251	0.00275
2319.09293	0.00300
2317.03334	0.00340
2314.97376	0.00498
2312.91417	0.00525
2310.85458	0.00517
2308.79500	0.00567
2306.73541	0.00590
2304.67583	0.00617
2302.61624	0.00617
2300.55666	0.00630
2298.49707	0.00664
2296.43749	0.00717
2294.37790	0.00706
2292.31832	0.00714
2290.25873	0.00748
2288.19915	0.00762
2286.13956	0.00708
2284.07998	0.00653
2282.02039	0.00628
2279.96081	0.00607
2277.90122	0.00574
2275.84164	0.00561
2273.78205	0.00565
2271.72247	0.00539
2269.66288	0.00544
2267.60330	0.00593
2265.54371	0.00629
2263.48413	0.00612
2261.42454	0.00594
2259.36495	0.00597
2257.30537	0.00594
2255.24578	0.00573
2253.18620	0.00566
2251.12661	0.00584
2249.06703	0.00588
2247.00744	0.00576
2244.94786	0.00527
2242.88827	0.00504
2240.82869	0.00507
2238.76910	0.00466
2236.70952	0.00373
2234.64993	0.00336
2232.59035	0.00415
2230.53076	0.00518
2228.47118	0.00525
2226.41159	0.00447
2224.35201	0.00367
2222.29242	0.00313
2220.23284	0.00338
2218.17325	0.00404
2216.11367	0.00427
2214.05408	0.00401
2211.99450	0.00331
2209.93491	0.00274
2207.87533	0.00280
2205.81574	0.00357
2203.75615	0.00420
2201.69657	0.00356
2199.63698	0.00292
2197.57740	0.00364
2195.51781	0.00437
2193.45823	0.00401
2191.39864	0.00400
2189.33906	0.00495
2187.27947	0.00532
2185.21989	0.00464
2183.16030	0.00385
2181.10072	0.00374
2179.04113	0.00445
2176.98155	0.00519
2174.92196	0.00536
2172.86238	0.00484
2170.80279	0.00413
2168.74321	0.00463
2166.68362	0.00591
2164.62404	0.00655
2162.56445	0.00648
2160.50487	0.00448
2158.44528	0.00138
2156.38570	0.00073
2154.32611	0.00182
2152.26652	0.00301
2150.20694	0.00396
2148.14735	0.00386
2146.08777	0.00288
2144.02818	0.00265
2141.96860	0.00391
2139.90901	0.00516
2137.84943	0.00466
2135.78984	0.00305
2133.73026	0.00201
2131.67067	0.00204
2129.61109	0.00286
2127.55150	0.00378
2125.49192	0.00399
2123.43233	0.00351
2121.37275	0.00334
2119.31316	0.00366
2117.25358	0.00375
2115.19399	0.00419
2113.13441	0.00510
2111.07482	0.00545
2109.01524	0.00532
2106.95565	0.00491
2104.89607	0.00431
2102.83648	0.00453
2100.77690	0.00515
2098.71731	0.00510
2096.65772	0.00438
2094.59814	0.00335
2092.53855	0.00317
2090.47897	0.00384
2088.41938	0.00405
2086.35980	0.00377
2084.30021	0.00328
2082.24063	0.00264
2080.18104	0.00257
2078.12146	0.00332
2076.06187	0.00416
2074.00229	0.00421
2071.94270	0.00372
2069.88312	0.00395
2067.82353	0.00465
2065.76395	0.00461
2063.70436	0.00402
2061.64478	0.00368
2059.58519	0.00419
2057.52561	0.00516
2055.46602	0.00530
2053.40644	0.00481
2051.34685	0.00452
2049.28727	0.00418
2047.22768	0.00384
2045.16810	0.00400
2043.10851	0.00418
2041.04892	0.00394
2038.98934	0.00371
2036.92975	0.00344
2034.87017	0.00332
2032.81058	0.00390
2030.75100	0.00380
2028.69141	0.00235
2026.63183	0.00140
2024.57224	0.00148
2022.51266	0.00206
2020.45307	0.00277
2018.39349	0.00286
2016.33390	0.00263
2014.27432	0.00293
2012.21473	0.00352
2010.15515	0.00370
2008.09556	0.00311
2006.03598	0.00209
2003.97639	0.00142
2001.91681	0.00133
1999.85722	0.00162
1997.79764	0.00236
1995.73805	0.00339
1993.67847	0.00374
1991.61888	0.00317
1989.55929	0.00271
1987.49971	0.00286
1985.44012	0.00334
1983.38054	0.00373
1981.32095	0.00361
1979.26137	0.00309
1977.20178	0.00261
1975.14220	0.00198
1973.08261	0.00114
1971.02303	0.00094
1968.96344	0.00157
1966.90386	0.00229
1964.84427	0.00238
1962.78469	0.00212
1960.72510	0.00206
1958.66552	0.00172
1956.60593	0.00099
1954.54635	0.00104
1952.48676	0.00230
1950.42718	0.00347
1948.36759	0.00345
1946.30801	0.00281
1944.24842	0.00246
1942.18884	0.00244
1940.12925	0.00246
1938.06967	0.00239
1936.01008	0.00232
1933.95049	0.00243
1931.89091	0.00258
1929.83132	0.00250
1927.77174	0.00234
1925.71215	0.00231
1923.65257	0.00262
1921.59298	0.00334
1919.53340	0.00374
1917.47381	0.00352
1915.41423	0.00321
1913.35464	0.00293
1911.29506	0.00274
1909.23547	0.00283
1907.17589	0.00311
1905.11630	0.00333
1903.05672	0.00321
1900.99713	0.00291
1898.93755	0.00293
1896.87796	0.00307
1894.81838	0.00301
1892.75879	0.00291
1890.69921	0.00300
1888.63962	0.00303
1886.58004	0.00277
1884.52045	0.00245
1882.46086	0.00237
1880.40128	0.00261
1878.34169	0.00302
1876.28211	0.00332
1874.22252	0.00334
1872.16294	0.00324
1870.10335	0.00329
1868.04377	0.00337
1865.98418	0.00309
1863.92460	0.00283
1861.86501	0.00296
1859.80543	0.00321
1857.74584	0.00328
1855.68626	0.00320
1853.62667	0.00312
1851.56709	0.00315
1849.50750	0.00328
1847.44792	0.00336
1845.38833	0.00353
1843.32875	0.00392
1841.26916	0.00404
1839.20958	0.00382
1837.14999	0.00373
1835.09041	0.00391
1833.03082	0.00407
1830.97124	0.00395
1828.91165	0.00365
1826.85206	0.00347
1824.79248	0.00361
1822.73289	0.00387
1820.67331	0.00387
1818.61372	0.00368
1816.55414	0.00358
1814.49455	0.00368
1812.43497	0.00384
1810.37538	0.00403
1808.31580	0.00426
1806.25621	0.00440
1804.19663	0.00430
1802.13704	0.00409
1800.07746	0.00409
1798.01787	0.00443
1795.95829	0.00479
1793.89870	0.00486
1791.83912	0.00474
1789.77953	0.00470
1787.71995	0.00478
1785.66036	0.00490
1783.60078	0.00501
1781.54119	0.00516
1779.48161	0.00528
1777.42202	0.00524
1775.36243	0.00497
1773.30285	0.00464
1771.24326	0.00466
1769.18368	0.00506
1767.12409	0.00543
1765.06451	0.00554
1763.00492	0.00551
1760.94534	0.00555
1758.88575	0.00572
1756.82617	0.00597
1754.76658	0.00619
1752.70700	0.00636
1750.64741	0.00663
1748.58783	0.00704
1746.52824	0.00737
1744.46866	0.00749
1742.40907	0.00752
1740.34949	0.00753
1738.28990	0.00759
1736.23032	0.00779
1734.17073	0.00807
1732.11115	0.00827
1730.05156	0.00847
1727.99198	0.00882
1725.93239	0.00926
1723.87281	0.00970
1721.81322	0.01005
1719.75363	0.01040
1717.69405	0.01117
1715.63446	0.01256
1713.57488	0.01411
1711.51529	0.01570
1709.45571	0.01781
1707.39612	0.02111
1705.33654	0.02578
1703.27695	0.03068
1701.21737	0.03501
1699.15778	0.03842
1697.09820	0.04051
1695.03861	0.04208
1692.97903	0.04366
1690.91944	0.04534
1688.85986	0.04716
1686.80027	0.04911
1684.74069	0.05180
1682.68110	0.05518
1680.62152	0.05795
1678.56193	0.06024
1676.50235	0.06289
1674.44276	0.06604
1672.38318	0.06914
1670.32359	0.07261
1668.26401	0.07667
1666.20442	0.08017
1664.14483	0.08340
1662.08525	0.08735
1660.02566	0.09146
1657.96608	0.09480
1655.90649	0.09766
1653.84691	0.10115
1651.78732	0.10484
1649.72774	0.10682
1647.66815	0.10801
1645.60857	0.10946
1643.54898	0.11068
1641.48940	0.11147
1639.42981	0.11219
1637.37023	0.11354
1635.31064	0.11605
1633.25106	0.11878
1631.19147	0.12120
1629.13189	0.12406
1627.07230	0.12746
1625.01272	0.13070
1622.95313	0.13337
1620.89355	0.13491
1618.83396	0.13465
1616.77438	0.13219
1614.71479	0.12810
1612.65520	0.12330
1610.59562	0.11745
1608.53603	0.11032
1606.47645	0.10260
1604.41686	0.09497
1602.35728	0.08774
1600.29769	0.08137
1598.23811	0.07611
1596.17852	0.07164
1594.11894	0.06761
1592.05935	0.06398
1589.99977	0.06095
1587.94018	0.05873
1585.88060	0.05733
1583.82101	0.05661
1581.76143	0.05638
1579.70184	0.05657
1577.64226	0.05735
1575.58267	0.05887
1573.52309	0.06068
1571.46350	0.06277
1569.40392	0.06550
1567.34433	0.06842
1565.28475	0.07108
1563.22516	0.07345
1561.16558	0.07601
1559.10599	0.08026
1557.04640	0.08541
1554.98682	0.08903
1552.92723	0.09185
1550.86765	0.09457
1548.80806	0.09714
1546.74848	0.09951
1544.68889	0.10199
1542.62931	0.10480
1540.56972	0.10807
1538.51014	0.11119
1536.45055	0.11325
1534.39097	0.11508
1532.33138	0.11723
1530.27180	0.11903
1528.21221	0.12043
1526.15263	0.12169
1524.09304	0.12276
1522.03346	0.12388
1519.97387	0.12538
1517.91429	0.12702
1515.85470	0.12840
1513.79512	0.12908
1511.73553	0.12894
1509.67595	0.12793
1507.61636	0.12564
1505.55677	0.12257
1503.49719	0.12001
1501.43760	0.11752
1499.37802	0.11404
1497.31843	0.10931
1495.25885	0.10439
1493.19926	0.10016
1491.13968	0.09570
1489.08009	0.09034
1487.02051	0.08520
1484.96092	0.08100
1482.90134	0.07728
1480.84175	0.07377
1478.78217	0.07072
1476.72258	0.06826
1474.66300	0.06623
1472.60341	0.06457
1470.54383	0.06340
1468.48424	0.06276
1466.42466	0.06255
1464.36507	0.06277
1462.30549	0.06326
1460.24590	0.06406
1458.18632	0.06586
1456.12673	0.06876
1454.06715	0.07131
1452.00756	0.07310
1449.94797	0.07447
1447.88839	0.07539
1445.82880	0.07563
1443.76922	0.07523
1441.70963	0.07443
1439.65005	0.07321
1437.59046	0.07124
1435.53088	0.06855
1433.47129	0.06587
1431.41171	0.06347
1429.35212	0.06134
1427.29254	0.05978
1425.23295	0.05895
1423.17337	0.05878
1421.11378	0.05926
1419.05420	0.06051
1416.99461	0.06221
1414.93503	0.06371
1412.87544	0.06491
1410.81586	0.06580
1408.75627	0.06615
1406.69669	0.06587
1404.63710	0.06516
1402.57752	0.06423
1400.51793	0.06322
1398.45834	0.06232
1396.39876	0.06175
1394.33917	0.06158
1392.27959	0.06171
1390.22000	0.06195
1388.16042	0.06219
1386.10083	0.06227
1384.04125	0.06200
1381.98166	0.06143
1379.92208	0.06083
1377.86249	0.06033
1375.80291	0.05985
1373.74332	0.05927
1371.68374	0.05857
1369.62415	0.05771
1367.56457	0.05657
1365.50498	0.05516
1363.44540	0.05349
1361.38581	0.05169
1359.32623	0.05006
1357.26664	0.04877
1355.20706	0.04786
1353.14747	0.04728
1351.08789	0.04703
1349.02830	0.04714
1346.96872	0.04763
1344.90913	0.04843
1342.84954	0.04951
1340.78996	0.05089
1338.73037	0.05247
1336.67079	0.05378
1334.61120	0.05438
1332.55162	0.05417
1330.49203	0.05325
1328.43245	0.05183
1326.37286	0.05025
1324.31328	0.04878
1322.25369	0.04760
1320.19411	0.04677
1318.13452	0.04624
1316.07494	0.04594
1314.01535	0.04583
1311.95577	0.04577
1309.89618	0.04563
1307.83660	0.04538
1305.77701	0.04513
1303.71743	0.04495
1301.65784	0.04484
1299.59826	0.04481
1297.53867	0.04483
1295.47909	0.04486
1293.41950	0.04491
1291.35991	0.04502
1289.30033	0.04519
1287.24074	0.04554
1285.18116	0.04613
1283.12157	0.04685
1281.06199	0.04768
1279.00240	0.04876
1276.94282	0.05013
1274.88323	0.05164
1272.82365	0.05319
1270.76406	0.05478
1268.70448	0.05629
1266.64489	0.05761
1264.58531	0.05866
1262.52572	0.05946
1260.46614	0.06002
1258.40655	0.06049
1256.34697	0.06108
1254.28738	0.06185
1252.22780	0.06269
1250.16821	0.06365
1248.10863	0.06490
1246.04904	0.06652
1243.98946	0.06831
1241.92987	0.07007
1239.87029	0.07169
1237.81070	0.07309
1235.75111	0.07422
1233.69153	0.07502
1231.63194	0.07545
1229.57236	0.07552
1227.51277	0.07516
1225.45319	0.07424
1223.39360	0.07290
1221.33402	0.07130
1219.27443	0.06938
1217.21485	0.06714
1215.15526	0.06474
1213.09568	0.06212
1211.03609	0.05935
1208.97651	0.05658
1206.91692	0.05391
1204.85734	0.05133
1202.79775	0.04887
1200.73817	0.04660
1198.67858	0.04453
1196.61900	0.04271
1194.55941	0.04124
1192.49983	0.04010
1190.44024	0.03917
1188.38066	0.03846
1186.32107	0.03805
1184.26149	0.03796
1182.20190	0.03812
1180.14231	0.03854
1178.08273	0.03937
1176.02314	0.04058
1173.96356	0.04190
1171.90397	0.04310
1169.84439	0.04394
1167.78480	0.04429
1165.72522	0.04433
1163.66563	0.04416
1161.60605	0.04374
1159.54646	0.04311
1157.48688	0.04232
1155.42729	0.04133
1153.36771	0.04010
1151.30812	0.03870
1149.24854	0.03734
1147.18895	0.03608
1145.12937	0.03484
1143.06978	0.03379
1141.01020	0.03294
1138.95061	0.03217
1136.89103	0.03153
1134.83144	0.03098
1132.77186	0.03041
1130.71227	0.02992
1128.65268	0.02962
1126.59310	0.02937
1124.53351	0.02910
1122.47393	0.02893
1120.41434	0.02883
1118.35476	0.02870
1116.29517	0.02863
1114.23559	0.02873
1112.17600	0.02892
1110.11642	0.02923
1108.05683	0.02973
1105.99725	0.03020
1103.93766	0.03043
1101.87808	0.03047
1099.81849	0.03040
1097.75891	0.03037
1095.69932	0.03048
1093.63974	0.03070
1091.58015	0.03107
1089.52057	0.03162
1087.46098	0.03237
1085.40140	0.03337
1083.34181	0.03450
1081.28223	0.03562
1079.22264	0.03677
1077.16306	0.03793
1075.10347	0.03888
1073.04388	0.03971
1070.98430	0.04054
1068.92471	0.04121
1066.86513	0.04163
1064.80554	0.04187
1062.74596	0.04217
1060.68637	0.04265
1058.62679	0.04303
1056.56720	0.04303
1054.50762	0.04251
1052.44803	0.04153
1050.38845	0.04043
1048.32886	0.03962
1046.26928	0.03896
1044.20969	0.03819
1042.15011	0.03739
1040.09052	0.03663
1038.03094	0.03592
1035.97135	0.03521
1033.91177	0.03439
1031.85218	0.03357
1029.79260	0.03281
1027.73301	0.03198
1025.67343	0.03124
1023.61384	0.03092
1021.55425	0.03116
1019.49467	0.03174
1017.43508	0.03231
1015.37550	0.03264
1013.31591	0.03251
1011.25633	0.03192
1009.19674	0.03120
1007.13716	0.03062
1005.07757	0.03024
1003.01799	0.03000
1000.95840	0.02979
998.89882	0.02940
996.83923	0.02872
994.77965	0.02776
992.72006	0.02663
990.66048	0.02539
988.60089	0.02414
986.54131	0.02319
984.48172	0.02284
982.42214	0.02306
980.36255	0.02353
978.30297	0.02397
976.24338	0.02427
974.18380	0.02425
972.12421	0.02382
970.06463	0.02321
968.00504	0.02270
965.94545	0.02233
963.88587	0.02210
961.82628	0.02192
959.76670	0.02165
957.70711	0.02135
955.64753	0.02113
953.58794	0.02098
951.52836	0.02083
949.46877	0.02065
947.40919	0.02043
945.34960	0.02030
943.29002	0.02031
941.23043	0.02035
939.17085	0.02021
937.11126	0.01999
935.05168	0.01993
932.99209	0.02003
930.93251	0.02011
928.87292	0.02003
926.81334	0.01979
924.75375	0.01945
922.69417	0.01905
920.63458	0.01862
918.57500	0.01809
916.51541	0.01742
914.45582	0.01693
912.39624	0.01666
910.33665	0.01634
908.27707	0.01604
906.21748	0.01591
904.15790	0.01596
902.09831	0.01605
900.03873	0.01604
897.97914	0.01594
895.91956	0.01581
893.85997	0.01568
891.80039	0.01560
889.74080	0.01555
887.68122	0.01550
885.62163	0.01551
883.56205	0.01562
881.50246	0.01568
879.44288	0.01566
877.38329	0.01559
875.32371	0.01550
873.26412	0.01548
871.20454	0.01552
869.14495	0.01560
867.08537	0.01586
865.02578	0.01630
862.96620	0.01673
860.90661	0.01711
858.84702	0.01761
856.78744	0.01819
854.72785	0.01863
852.66827	0.01888
850.60868	0.01904
848.54910	0.01915
846.48951	0.01916
844.42993	0.01911
842.37034	0.01916
840.31076	0.01936
838.25117	0.01967
836.19159	0.02014
834.13200	0.02066
832.07242	0.02106
830.01283	0.02118
827.95325	0.02118
825.89366	0.02125
823.83408	0.02133
821.77449	0.02130
819.71491	0.02124
817.65532	0.02124
815.59574	0.02138
813.53615	0.02158
811.47657	0.02172
809.41698	0.02185
807.35740	0.02208
805.29781	0.02234
803.23822	0.02253
801.17864	0.02258
799.11905	0.02253
797.05947	0.02256
794.99988	0.02276
792.94030	0.02300
790.88071	0.02313
788.82113	0.02337
786.76154	0.02386
784.70196	0.02432
782.64237	0.02459
780.58279	0.02493
778.52320	0.02551
776.46362	0.02617
774.40403	0.02671
772.34445	0.02713
770.28486	0.02743
768.22528	0.02772
766.16569	0.02814
764.10611	0.02857
762.04652	0.02890
759.98694	0.02916
757.92735	0.02942
755.86777	0.02983
753.80818	0.03034
751.74859	0.03076
749.68901	0.03124
747.62942	0.03179
745.56984	0.03234
743.51025	0.03308
741.45067	0.03388
739.39108	0.03444
737.33150	0.03501
735.27191	0.03581
733.21233	0.03675
731.15274	0.03770
729.09316	0.03858
727.03357	0.03933
724.97399	0.03997
722.91440	0.04045
720.85482	0.04076
718.79523	0.04156
716.73565	0.04191
714.67606	0.04234
712.61648	0.04297
710.55689	0.04371
708.49731	0.04450
706.43772	0.04524
704.37814	0.04589
702.31855	0.04647
700.25897	0.04704
698.19938	0.04760
696.13979	0.04810
694.08021	0.04861
692.02062	0.04915
689.96104	0.04958
687.90145	0.04986
685.84187	0.05013
683.78228	0.05045
681.72270	0.05068
679.66311	0.05073
677.60353	0.05071
675.54394	0.05069
673.48436	0.05057
671.42477	0.05245
669.36519	0.05598
667.30560	0.04756
665.24602	0.05142
663.18643	0.05202
661.12685	0.05193
659.06726	0.05224
657.00768	0.05256
654.94809	0.05270
652.88851	0.05283
650.82892	0.05303
648.76934	0.05300
646.70975	0.05317
644.65016	0.05336
642.59058	0.05345
640.53099	0.05338
638.47141	0.05334
636.41182	0.05334
634.35224	0.05326
632.29265	0.05321
630.23307	0.05321
628.17348	0.05320
626.11390	0.05319
624.05431	0.05318
621.99473	0.05322
619.93514	0.05332
617.87556	0.05334
615.81597	0.05338
613.75639	0.05352
611.69680	0.05367
609.63722	0.05389
607.57763	0.05405
605.51805	0.05385
603.45846	0.05339
601.39888	0.05295
599.33929	0.05263
597.27971	0.05236
595.22012	0.05210
593.16054	0.05194
591.10095	0.05192
589.04136	0.05186
586.98178	0.05168
584.92219	0.05163
582.86261	0.05177
580.80302	0.05191
578.74344	0.05206
576.68385	0.05225
574.62427	0.05242
572.56468	0.05257
570.50510	0.05273
568.44551	0.05294
566.38593	0.05333
564.32634	0.05392
562.26676	0.05461
560.20717	0.05540
558.14759	0.05627
556.08800	0.05731
554.02842	0.05840
551.96883	0.05922
549.90925	0.05975
547.84966	0.06015
545.79008	0.06032
543.73049	0.06028
541.67091	0.06019
539.61132	0.05999
537.55173	0.05975
535.49215	0.05956
533.43256	0.05921
531.37298	0.05862
529.31339	0.05816
527.25381	0.05800
525.19422	0.05789
523.13464	0.05764
521.07505	0.05736
519.01547	0.05706
516.95588	0.05675
514.89630	0.05649
512.83671	0.05638
510.77713	0.05644
508.71754	0.05636
506.65796	0.05593
504.59837	0.05548
502.53879	0.05537
500.47920	0.05563
498.41962	0.05584
496.36003	0.05577
494.30045	0.05559
492.24086	0.05546
490.18128	0.05533
488.12169	0.05510
486.06211	0.05480
484.00252	0.05444
481.94293	0.05411
479.88335	0.05397
477.82376	0.05381
475.76418	0.05350
473.70459	0.05329
471.64501	0.05318
469.58542	0.05285
467.52584	0.05247
465.46625	0.05225
463.40667	0.05204
461.34708	0.05178
459.28750	0.05143
457.22791	0.05096
455.16833	0.05063
453.10874	0.05063
451.04916	0.05076
448.98957	0.05064
446.92999	0.05024
444.87040	0.04986
442.81082	0.04972
440.75123	0.04973
438.69165	0.04969
436.63206	0.04948
434.57248	0.04908
432.51289	0.04883
430.45330	0.04919
428.39372	0.05002
426.33413	0.05066
424.27455	0.05079
422.21496	0.05048
420.15538	0.05019
418.09579	0.05010
416.03621	0.04984
413.97662	0.04950
411.91704	0.04951
409.85745	0.04990
407.79787	0.05016
405.73828	0.05023
403.67870	0.05035
401.61911	0.05012
399.55953	0.04922
