3997.65486	0.00841
3995.59527	0.00885
3993.53569	0.00857
3991.47610	0.00856
3989.41652	0.00930
3987.35693	0.00973
3985.29735	0.00952
3983.23776	0.00905
3981.17817	0.00850
3979.11859	0.00824
3977.05900	0.00858
3974.99942	0.00889
3972.93983	0.00884
3970.88025	0.00910
3968.82066	0.00951
3966.76108	0.00940
3964.70149	0.00899
3962.64191	0.00871
3960.58232	0.00854
3958.52274	0.00865
3956.46315	0.00887
3954.40357	0.00853
3952.34398	0.00773
3950.28440	0.00741
3948.22481	0.00794
3946.16523	0.00864
3944.10564	0.00885
3942.04606	0.00857
3939.98647	0.00841
3937.92689	0.00885
3935.86730	0.00940
3933.80772	0.00946
3931.74813	0.00912
3929.68855	0.00890
3927.62896	0.00922
3925.56937	0.00958
3923.50979	0.00935
3921.45020	0.00889
3919.39062	0.00874
3917.33103	0.00883
3915.27145	0.00875
3913.21186	0.00840
3911.15228	0.00806
3909.09269	0.00812
3907.03311	0.00863
3904.97352	0.00907
3902.91394	0.00884
3900.85435	0.00824
3898.79477	0.00808
3896.73518	0.00821
3894.67560	0.00825
3892.61601	0.00843
3890.55643	0.00861
3888.49684	0.00828
3886.43726	0.00768
3884.37767	0.00742
3882.31809	0.00777
3880.25850	0.00873
3878.19892	0.00982
3876.13933	0.01064
3874.07974	0.01105
3872.02016	0.01079
3869.96057	0.00993
3867.90099	0.00889
3865.84140	0.00824
3863.78182	0.00854
3861.72223	0.00933
3859.66265	0.00954
3857.60306	0.00901
3855.54348	0.00801
3853.48389	0.00712
3851.42431	0.00736
3849.36472	0.00815
3847.30514	0.00855
3845.24555	0.00875
3843.18597	0.00930
3841.12638	0.01015
3839.06680	0.01027
3837.00721	0.00897
3834.94763	0.00735
3832.88804	0.00652
3830.82846	0.00649
3828.76887	0.00680
3826.70929	0.00715
3824.64970	0.00736
3822.59012	0.00745
3820.53053	0.00774
3818.47094	0.00805
3816.41136	0.00791
3814.35177	0.00791
3812.29219	0.00840
3810.23260	0.00883
3808.17302	0.00890
3806.11343	0.00866
3804.05385	0.00851
3801.99426	0.00858
3799.93468	0.00811
3797.87509	0.00716
3795.81551	0.00677
3793.75592	0.00738
3791.69634	0.00831
3789.63675	0.00875
3787.57717	0.00851
3785.51758	0.00811
3783.45800	0.00806
3781.39841	0.00820
3779.33883	0.00822
3777.27924	0.00807
3775.21966	0.00775
3773.16007	0.00758
3771.10049	0.00776
3769.04090	0.00795
3766.98132	0.00821
3764.92173	0.00867
3762.86214	0.00868
3760.80256	0.00802
3758.74297	0.00733
3756.68339	0.00714
3754.62380	0.00750
3752.56422	0.00869
3750.50463	0.01002
3748.44505	0.01007
3746.38546	0.00937
3744.32588	0.00867
3742.26629	0.00809
3740.20671	0.00787
3738.14712	0.00831
3736.08754	0.00926
3734.02795	0.00966
3731.96837	0.00879
3729.90878	0.00768
3727.84920	0.00732
3725.78961	0.00764
3723.73003	0.00781
3721.67044	0.00759
3719.61086	0.00752
3717.55127	0.00786
3715.49169	0.00829
3713.43210	0.00859
3711.37251	0.00905
3709.31293	0.00960
3707.25334	0.00918
3705.19376	0.00788
3703.13417	0.00707
3701.07459	0.00753
3699.01500	0.00824
3696.95542	0.00808
3694.89583	0.00741
3692.83625	0.00723
3690.77666	0.00752
3688.71708	0.00787
3686.65749	0.00835
3684.59791	0.00872
3682.53832	0.00858
3680.47874	0.00833
3678.41915	0.00861
3676.35957	0.00925
3674.29998	0.00967
3672.24040	0.00988
3670.18081	0.01011
3668.12123	0.01004
3666.06164	0.00965
3664.00206	0.00927
3661.94247	0.00911
3659.88289	0.00916
3657.82330	0.00918
3655.76371	0.00890
3653.70413	0.00883
3651.64454	0.00930
3649.58496	0.00974
3647.52537	0.00967
3645.46579	0.00945
3643.40620	0.00939
3641.34662	0.00976
3639.28703	0.01061
3637.22745	0.01133
3635.16786	0.01157
3633.10828	0.01168
3631.04869	0.01185
3628.98911	0.01203
3626.92952	0.01227
3624.86994	0.01264
3622.81035	0.01308
3620.75077	0.01327
3618.69118	0.01312
3616.63160	0.01302
3614.57201	0.01312
3612.51243	0.01326
3610.45284	0.01310
3608.39326	0.01253
3606.33367	0.01242
3604.27408	0.01316
3602.21450	0.01414
3600.15491	0.01489
3598.09533	0.01526
3596.03574	0.01504
3593.97616	0.01453
3591.91657	0.01436
3589.85699	0.01493
3587.79740	0.01593
3585.73782	0.01650
3583.67823	0.01648
3581.61865	0.01653
3579.55906	0.01666
3577.49948	0.01670
3575.43989	0.01692
3573.38031	0.01747
3571.32072	0.01823
3569.26114	0.01892
3567.20155	0.01915
3565.14197	0.01894
3563.08238	0.01885
3561.02280	0.01886
3558.96321	0.01861
3556.90363	0.01814
3554.84404	0.01787
3552.78446	0.01813
3550.72487	0.01891
3548.66528	0.01999
3546.60570	0.02114
3544.54611	0.02203
3542.48653	0.02219
3540.42694	0.02172
3538.36736	0.02146
3536.30777	0.02193
3534.24819	0.02274
3532.18860	0.02318
3530.12902	0.02285
3528.06943	0.02216
3526.00985	0.02192
3523.95026	0.02238
3521.89068	0.02324
3519.83109	0.02415
3517.77151	0.02482
3515.71192	0.02519
3513.65234	0.02523
3511.59275	0.02500
3509.53317	0.02489
3507.47358	0.02515
3505.41400	0.02554
3503.35441	0.02571
3501.29483	0.02567
3499.23524	0.02575
3497.17565	0.02573
3495.11607	0.02543
3493.05648	0.02553
3490.99690	0.02621
3488.93731	0.02668
3486.87773	0.02680
3484.81814	0.02686
3482.75856	0.02660
3480.69897	0.02629
3478.63939	0.02662
3476.57980	0.02715
3474.52022	0.02742
3472.46063	0.02763
3470.40105	0.02766
3468.34146	0.02740
3466.28188	0.02711
3464.22229	0.02706
3462.16271	0.02757
3460.10312	0.02835
3458.04354	0.02850
3455.98395	0.02828
3453.92437	0.02857
3451.86478	0.02908
3449.80520	0.02940
3447.74561	0.02983
3445.68603	0.03006
3443.62644	0.02978
3441.56685	0.02962
3439.50727	0.02970
3437.44768	0.02976
3435.38810	0.02997
3433.32851	0.03018
3431.26893	0.03014
3429.20934	0.03009
3427.14976	0.03025
3425.09017	0.03057
3423.03059	0.03109
3420.97100	0.03175
3418.91142	0.03188
3416.85183	0.03142
3414.79225	0.03133
3412.73266	0.03176
3410.67308	0.03215
3408.61349	0.03237
3406.55391	0.03255
3404.49432	0.03262
3402.43474	0.03289
3400.37515	0.03359
3398.31557	0.03421
3396.25598	0.03461
3394.19640	0.03488
3392.13681	0.03492
3390.07723	0.03495
3388.01764	0.03512
3385.95805	0.03543
3383.89847	0.03583
3381.83888	0.03603
3379.77930	0.03601
3377.71971	0.03606
3375.66013	0.03622
3373.60054	0.03654
3371.54096	0.03704
3369.48137	0.03751
3367.42179	0.03800
3365.36220	0.03871
3363.30262	0.03932
3361.24303	0.03973
3359.18345	0.04023
3357.12386	0.04056
3355.06428	0.04061
3353.00469	0.04105
3350.94511	0.04202
3348.88552	0.04275
3346.82594	0.04292
3344.76635	0.04318
3342.70677	0.04379
3340.64718	0.04427
3338.58760	0.04481
3336.52801	0.04586
3334.46842	0.04697
3332.40884	0.04782
3330.34925	0.04836
3328.28967	0.04847
3326.23008	0.04883
3324.17050	0.05012
3322.11091	0.05177
3320.05133	0.05314
3317.99174	0.05436
3315.93216	0.05574
3313.87257	0.05690
3311.81299	0.05750
3309.75340	0.05814
3307.69382	0.05925
3305.63423	0.06043
3303.57465	0.06162
3301.51506	0.06309
3299.45548	0.06455
3297.39589	0.06564
3295.33631	0.06675
3293.27672	0.06835
3291.21714	0.06990
3289.15755	0.07071
3287.09797	0.07134
3285.03838	0.07242
3282.97880	0.07361
3280.91921	0.07454
3278.85962	0.07509
3276.80004	0.07535
3274.74045	0.07533
3272.68087	0.07494
3270.62128	0.07450
3268.56170	0.07408
3266.50211	0.07324
3264.44253	0.07215
3262.38294	0.07152
3260.32336	0.07117
3258.26377	0.07052
3256.20419	0.06953
3254.14460	0.06834
3252.08502	0.06706
3250.02543	0.06597
3247.96585	0.06523
3245.90626	0.06444
3243.84668	0.06350
3241.78709	0.06263
3239.72751	0.06155
3237.66792	0.06053
3235.60834	0.05979
3233.54875	0.05908
3231.48917	0.05869
3229.42958	0.05841
3227.36999	0.05760
3225.31041	0.05658
3223.25082	0.05572
3221.19124	0.05462
3219.13165	0.05340
3217.07207	0.05267
3215.01248	0.05228
3212.95290	0.05178
3210.89331	0.05116
3208.83373	0.05062
3206.77414	0.05018
3204.71456	0.04975
3202.65497	0.04943
3200.59539	0.04896
3198.53580	0.04830
3196.47622	0.04765
3194.41663	0.04667
3192.35705	0.04543
3190.29746	0.04453
3188.23788	0.04390
3186.17829	0.04306
3184.11871	0.04215
3182.05912	0.04170
3179.99954	0.04139
3177.93995	0.04060
3175.88037	0.03964
3173.82078	0.03886
3171.76119	0.03812
3169.70161	0.03749
3167.64202	0.03722
3165.58244	0.03727
3163.52285	0.03704
3161.46327	0.03616
3159.40368	0.03522
3157.34410	0.03469
3155.28451	0.03434
3153.22493	0.03384
3151.16534	0.03336
3149.10576	0.03303
3147.04617	0.03269
3144.98659	0.03243
3142.92700	0.03236
3140.86742	0.03218
3138.80783	0.03171
3136.74825	0.03108
3134.68866	0.03065
3132.62908	0.03071
3130.56949	0.03086
3128.50991	0.03074
3126.45032	0.03071
3124.39074	0.03087
3122.33115	0.03079
3120.27156	0.03051
3118.21198	0.03035
3116.15239	0.03042
3114.09281	0.03055
3112.03322	0.03070
3109.97364	0.03071
3107.91405	0.03045
3105.85447	0.03032
3103.79488	0.03070
3101.73530	0.03145
3099.67571	0.03187
3097.61613	0.03165
3095.55654	0.03140
3093.49696	0.03158
3091.43737	0.03210
3089.37779	0.03265
3087.31820	0.03297
3085.25862	0.03293
3083.19903	0.03278
3081.13945	0.03277
3079.07986	0.03286
3077.02028	0.03300
3074.96069	0.03311
3072.90111	0.03309
3070.84152	0.03301
3068.78194	0.03302
3066.72235	0.03283
3064.66276	0.03241
3062.60318	0.03224
3060.54359	0.03210
3058.48401	0.03157
3056.42442	0.03107
3054.36484	0.03089
3052.30525	0.03059
3050.24567	0.03006
3048.18608	0.02974
3046.12650	0.02969
3044.06691	0.02955
3042.00733	0.02901
3039.94774	0.02814
3037.88816	0.02736
3035.82857	0.02704
3033.76899	0.02688
3031.70940	0.02639
3029.64982	0.02572
3027.59023	0.02524
3025.53065	0.02491
3023.47106	0.02455
3021.41148	0.02426
3019.35189	0.02409
3017.29231	0.02388
3015.23272	0.02385
3013.17313	0.02397
3011.11355	0.02364
3009.05396	0.02300
3006.99438	0.02282
3004.93479	0.02299
3002.87521	0.02303
3000.81562	0.02317
2998.75604	0.02361
2996.69645	0.02396
2994.63687	0.02418
2992.57728	0.02452
2990.51770	0.02484
2988.45811	0.02513
2986.39853	0.02538
2984.33894	0.02538
2982.27936	0.02533
2980.21977	0.02528
2978.16019	0.02507
2976.10060	0.02512
2974.04102	0.02569
2971.98143	0.02624
2969.92185	0.02635
2967.86226	0.02631
2965.80268	0.02644
2963.74309	0.02645
2961.68351	0.02620
2959.62392	0.02597
2957.56433	0.02559
2955.50475	0.02496
2953.44516	0.02472
2951.38558	0.02509
2949.32599	0.02571
2947.26641	0.02618
2945.20682	0.02644
2943.14724	0.02687
2941.08765	0.02749
2939.02807	0.02789
2936.96848	0.02807
2934.90890	0.02835
2932.84931	0.02882
2930.78973	0.02917
2928.73014	0.02927
2926.67056	0.02932
2924.61097	0.02934
2922.55139	0.02903
2920.49180	0.02828
2918.43222	0.02739
2916.37263	0.02683
2914.31305	0.02631
2912.25346	0.02522
2910.19388	0.02402
2908.13429	0.02343
2906.07471	0.02344
2904.01512	0.02351
2901.95553	0.02319
2899.89595	0.02239
2897.83636	0.02161
2895.77678	0.02150
2893.71719	0.02174
2891.65761	0.02163
2889.59802	0.02125
2887.53844	0.02102
2885.47885	0.02115
2883.41927	0.02141
2881.35968	0.02155
2879.30010	0.02152
2877.24051	0.02130
2875.18093	0.02102
2873.12134	0.02095
2871.06176	0.02099
2869.00217	0.02081
2866.94259	0.02034
2864.88300	0.01976
2862.82342	0.01939
2860.76383	0.01931
2858.70425	0.01919
2856.64466	0.01915
2854.58508	0.01951
2852.52549	0.01991
2850.46590	0.01989
2848.40632	0.01927
2846.34673	0.01827
2844.28715	0.01753
2842.22756	0.01738
2840.16798	0.01750
2838.10839	0.01746
2836.04881	0.01720
2833.98922	0.01690
2831.92964	0.01665
2829.87005	0.01646
2827.81047	0.01641
2825.75088	0.01641
2823.69130	0.01631
2821.63171	0.01626
2819.57213	0.01623
2817.51254	0.01605
2815.45296	0.01585
2813.39337	0.01575
2811.33379	0.01582
2809.27420	0.01603
2807.21462	0.01604
2805.15503	0.01592
2803.09545	0.01577
2801.03586	0.01545
2798.97628	0.01536
2796.91669	0.01549
2794.85710	0.01540
2792.79752	0.01527
2790.73793	0.01534
2788.67835	0.01543
2786.61876	0.01540
2784.55918	0.01515
2782.49959	0.01461
2780.44001	0.01418
2778.38042	0.01415
2776.32084	0.01438
2774.26125	0.01459
2772.20167	0.01456
2770.14208	0.01444
2768.08250	0.01430
2766.02291	0.01408
2763.96333	0.01383
2761.90374	0.01343
2759.84416	0.01305
2757.78457	0.01306
2755.72499	0.01328
2753.66540	0.01325
2751.60582	0.01309
2749.54623	0.01313
2747.48665	0.01321
2745.42706	0.01305
2743.36747	0.01277
2741.30789	0.01253
2739.24830	0.01232
2737.18872	0.01227
2735.12913	0.01239
2733.06955	0.01239
2731.00996	0.01226
2728.95038	0.01232
2726.89079	0.01257
2724.83121	0.01262
2722.77162	0.01238
2720.71204	0.01215
2718.65245	0.01207
2716.59287	0.01203
2714.53328	0.01207
2712.47370	0.01214
2710.41411	0.01204
2708.35453	0.01182
2706.29494	0.01174
2704.23536	0.01191
2702.17577	0.01202
2700.11619	0.01181
2698.05660	0.01151
2695.99702	0.01147
2693.93743	0.01171
2691.87785	0.01180
2689.81826	0.01164
2687.75867	0.01147
2685.69909	0.01138
2683.63950	0.01118
2681.57992	0.01083
2679.52033	0.01080
2677.46075	0.01117
2675.40116	0.01150
2673.34158	0.01163
2671.28199	0.01156
2669.22241	0.01125
2667.16282	0.01091
2665.10324	0.01088
2663.04365	0.01112
2660.98407	0.01127
2658.92448	0.01119
2656.86490	0.01121
2654.80531	0.01146
2652.74573	0.01166
2650.68614	0.01163
2648.62656	0.01142
2646.56697	0.01127
2644.50739	0.01120
2642.44780	0.01114
2640.38822	0.01129
2638.32863	0.01153
2636.26904	0.01152
2634.20946	0.01117
2632.14987	0.01066
2630.09029	0.01045
2628.03070	0.01067
2625.97112	0.01087
2623.91153	0.01080
2621.85195	0.01072
2619.79236	0.01076
2617.73278	0.01076
2615.67319	0.01053
2613.61361	0.01031
2611.55402	0.01041
2609.49444	0.01078
2607.43485	0.01113
2605.37527	0.01112
2603.31568	0.01071
2601.25610	0.01027
2599.19651	0.01006
2597.13693	0.00995
2595.07734	0.00974
2593.01776	0.00955
2590.95817	0.00980
2588.89859	0.01006
2586.83900	0.00976
2584.77942	0.00944
2582.71983	0.00950
2580.66024	0.00966
2578.60066	0.00978
2576.54107	0.00992
2574.48149	0.00961
2572.42190	0.00882
2570.36232	0.00848
2568.30273	0.00873
2566.24315	0.00891
2564.18356	0.00877
2562.12398	0.00871
2560.06439	0.00902
2558.00481	0.00937
2555.94522	0.00930
2553.88564	0.00892
2551.82605	0.00863
2549.76647	0.00856
2547.70688	0.00863
2545.64730	0.00867
2543.58771	0.00863
2541.52813	0.00877
2539.46854	0.00887
2537.40896	0.00857
2535.34937	0.00825
2533.28979	0.00823
2531.23020	0.00837
2529.17062	0.00845
2527.11103	0.00834
2525.05144	0.00817
2522.99186	0.00820
2520.93227	0.00828
2518.87269	0.00810
2516.81310	0.00788
2514.75352	0.00786
2512.69393	0.00792
2510.63435	0.00811
2508.57476	0.00839
2506.51518	0.00831
2504.45559	0.00789
2502.39601	0.00757
2500.33642	0.00761
2498.27684	0.00802
2496.21725	0.00814
2494.15767	0.00782
2492.09808	0.00772
2490.03850	0.00776
2487.97891	0.00767
2485.91933	0.00785
2483.85974	0.00840
2481.80016	0.00872
2479.74057	0.00852
2477.68099	0.00801
2475.62140	0.00752
2473.56181	0.00748
2471.50223	0.00798
2469.44264	0.00841
2467.38306	0.00833
2465.32347	0.00815
2463.26389	0.00810
2461.20430	0.00790
2459.14472	0.00742
2457.08513	0.00724
2455.02555	0.00776
2452.96596	0.00830
2450.90638	0.00823
2448.84679	0.00793
2446.78721	0.00793
2444.72762	0.00800
2442.66804	0.00777
2440.60845	0.00752
2438.54887	0.00755
2436.48928	0.00777
2434.42970	0.00792
2432.37011	0.00786
2430.31053	0.00767
2428.25094	0.00762
2426.19136	0.00764
2424.13177	0.00752
2422.07219	0.00745
2420.01260	0.00750
2417.95301	0.00733
2415.89343	0.00703
2413.83384	0.00694
2411.77426	0.00709
2409.71467	0.00733
2407.65509	0.00764
2405.59550	0.00782
2403.53592	0.00765
2401.47633	0.00722
2399.41675	0.00625
2397.35716	0.00629
2395.29758	0.00666
2393.23799	0.00696
2391.17841	0.00740
2389.11882	0.00797
2387.05924	0.00848
2384.99965	0.00882
2382.94007	0.00889
2380.88048	0.00877
2378.82090	0.00857
2376.76131	0.00798
2374.70173	0.00821
2372.64214	0.00807
2370.58256	0.00711
2368.52297	0.00729
2366.46338	0.00674
2364.40380	0.00651
2362.34421	0.00680
2360.28463	0.00623
2358.22504	0.00738
2356.16546	0.00825
2354.10587	0.00888
2352.04629	0.01001
2349.98670	0.00870
2347.92712	0.00957
2345.86753	0.01016
2343.80795	0.00893
2341.74836	0.00978
2339.68878	0.00811
2337.62919	0.00699
2335.56961	0.00809
2333.51002	0.00798
2331.45044	0.00933
2329.39085	0.00916
2327.33127	0.01074
2325.27168	0.01084
2323.21210	0.01071
2321.15251	0.00975
2319.09293	0.00876
2317.03334	0.00867
2314.97376	0.00874
2312.91417	0.00908
2310.85458	0.00955
2308.79500	0.00983
2306.73541	0.01010
2304.67583	0.01001
2302.61624	0.00967
2300.55666	0.00941
2298.49707	0.00942
2296.43749	0.00915
2294.37790	0.00878
2292.31832	0.00862
2290.25873	0.00881
2288.19915	0.00893
2286.13956	0.00860
2284.07998	0.00804
2282.02039	0.00790
2279.96081	0.00789
2277.90122	0.00767
2275.84164	0.00764
2273.78205	0.00769
2271.72247	0.00748
2269.66288	0.00729
2267.60330	0.00754
2265.54371	0.00797
2263.48413	0.00826
2261.42454	0.00828
2259.36495	0.00812
2257.30537	0.00801
2255.24578	0.00825
2253.18620	0.00872
2251.12661	0.00869
2249.06703	0.00793
2247.00744	0.00825
2244.94786	0.00847
2242.88827	0.00807
2240.82869	0.00739
2238.76910	0.00635
2236.70952	0.00595
2234.64993	0.00692
2232.59035	0.00768
2230.53076	0.00719
2228.47118	0.00651
2226.41159	0.00661
2224.35201	0.00688
2222.29242	0.00670
2220.23284	0.00666
2218.17325	0.00675
2216.11367	0.00646
2214.05408	0.00627
2211.99450	0.00619
2209.93491	0.00600
2207.87533	0.00616
2205.81574	0.00632
2203.75615	0.00612
2201.69657	0.00616
2199.63698	0.00668
2197.57740	0.00695
2195.51781	0.00669
2193.45823	0.00665
2191.39864	0.00702
2189.33906	0.00756
2187.27947	0.00790
2185.21989	0.00741
2183.16030	0.00638
2181.10072	0.00574
2179.04113	0.00566
2176.98155	0.00607
2174.92196	0.00736
2172.86238	0.00807
2170.80279	0.00688
2168.74321	0.00596
2166.68362	0.00692
2164.62404	0.00881
2162.56445	0.00983
2160.50487	0.00791
2158.44528	0.00461
2156.38570	0.00325
2154.32611	0.00347
2152.26652	0.00435
2150.20694	0.00548
2148.14735	0.00618
2146.08777	0.00591
2144.02818	0.00521
2141.96860	0.00538
2139.90901	0.00584
2137.84943	0.00512
2135.78984	0.00384
2133.73026	0.00369
2131.67067	0.00478
2129.61109	0.00598
2127.55150	0.00663
2125.49192	0.00646
2123.43233	0.00587
2121.37275	0.00571
2119.31316	0.00586
2117.25358	0.00597
2115.19399	0.00663
2113.13441	0.00769
2111.07482	0.00800
2109.01524	0.00754
2106.95565	0.00665
2104.89607	0.00590
2102.83648	0.00624
2100.77690	0.00711
2098.71731	0.00746
2096.65772	0.00716
2094.59814	0.00629
2092.53855	0.00563
2090.47897	0.00568
2088.41938	0.00581
2086.35980	0.00575
2084.30021	0.00555
2082.24063	0.00519
2080.18104	0.00494
2078.12146	0.00520
2076.06187	0.00597
2074.00229	0.00642
2071.94270	0.00614
2069.88312	0.00611
2067.82353	0.00635
2065.76395	0.00607
2063.70436	0.00562
2061.64478	0.00543
2059.58519	0.00549
2057.52561	0.00618
2055.46602	0.00699
2053.40644	0.00712
2051.34685	0.00710
2049.28727	0.00721
2047.22768	0.00698
2045.16810	0.00667
2043.10851	0.00659
2041.04892	0.00622
2038.98934	0.00556
2036.92975	0.00527
2034.87017	0.00518
2032.81058	0.00518
2030.75100	0.00552
2028.69141	0.00574
2026.63183	0.00522
2024.57224	0.00450
2022.51266	0.00507
2020.45307	0.00640
2018.39349	0.00630
2016.33390	0.00486
2014.27432	0.00449
2012.21473	0.00578
2010.15515	0.00657
2008.09556	0.00597
2006.03598	0.00514
2003.97639	0.00456
2001.91681	0.00417
1999.85722	0.00403
1997.79764	0.00428
1995.73805	0.00515
1993.67847	0.00587
1991.61888	0.00565
1989.55929	0.00555
1987.49971	0.00618
1985.44012	0.00664
1983.38054	0.00668
1981.32095	0.00630
1979.26137	0.00533
1977.20178	0.00455
1975.14220	0.00440
1973.08261	0.00429
1971.02303	0.00418
1968.96344	0.00415
1966.90386	0.00417
1964.84427	0.00463
1962.78469	0.00507
1960.72510	0.00496
1958.66552	0.00420
1956.60593	0.00315
1954.54635	0.00313
1952.48676	0.00449
1950.42718	0.00546
1948.36759	0.00514
1946.30801	0.00452
1944.24842	0.00418
1942.18884	0.00401
1940.12925	0.00397
1938.06967	0.00377
1936.01008	0.00362
1933.95049	0.00400
1931.89091	0.00430
1929.83132	0.00404
1927.77174	0.00388
1925.71215	0.00402
1923.65257	0.00404
1921.59298	0.00406
1919.53340	0.00432
1917.47381	0.00471
1915.41423	0.00495
1913.35464	0.00488
1911.29506	0.00461
1909.23547	0.00456
1907.17589	0.00486
1905.11630	0.00517
1903.05672	0.00508
1900.99713	0.00484
1898.93755	0.00482
1896.87796	0.00484
1894.81838	0.00476
1892.75879	0.00471
1890.69921	0.00476
1888.63962	0.00469
1886.58004	0.00445
1884.52045	0.00428
1882.46086	0.00416
1880.40128	0.00412
1878.34169	0.00430
1876.28211	0.00457
1874.22252	0.00481
1872.16294	0.00505
1870.10335	0.00530
1868.04377	0.00520
1865.98418	0.00464
1863.92460	0.00413
1861.86501	0.00399
1859.80543	0.00402
1857.74584	0.00413
1855.68626	0.00430
1853.62667	0.00432
1851.56709	0.00436
1849.50750	0.00472
1847.44792	0.00527
1845.38833	0.00556
1843.32875	0.00540
1841.26916	0.00507
1839.20958	0.00490
1837.14999	0.00490
1835.09041	0.00492
1833.03082	0.00494
1830.97124	0.00495
1828.91165	0.00488
1826.85206	0.00470
1824.79248	0.00457
1822.73289	0.00447
1820.67331	0.00428
1818.61372	0.00412
1816.55414	0.00424
1814.49455	0.00453
1812.43497	0.00473
1810.37538	0.00478
1808.31580	0.00483
1806.25621	0.00489
1804.19663	0.00490
1802.13704	0.00489
1800.07746	0.00490
1798.01787	0.00503
1795.95829	0.00521
1793.89870	0.00528
1791.83912	0.00517
1789.77953	0.00501
1787.71995	0.00501
1785.66036	0.00515
1783.60078	0.00528
1781.54119	0.00541
1779.48161	0.00554
1777.42202	0.00558
1775.36243	0.00554
1773.30285	0.00547
1771.24326	0.00543
1769.18368	0.00537
1767.12409	0.00528
1765.06451	0.00525
1763.00492	0.00530
1760.94534	0.00536
1758.88575	0.00545
1756.82617	0.00559
1754.76658	0.00573
1752.70700	0.00595
1750.64741	0.00642
1748.58783	0.00686
1746.52824	0.00689
1744.46866	0.00674
1742.40907	0.00670
1740.34949	0.00666
1738.28990	0.00662
1736.23032	0.00682
1734.17073	0.00724
1732.11115	0.00743
1730.05156	0.00729
1727.99198	0.00720
1725.93239	0.00734
1723.87281	0.00766
1721.81322	0.00800
1719.75363	0.00840
1717.69405	0.00918
1715.63446	0.01021
1713.57488	0.01103
1711.51529	0.01191
1709.45571	0.01335
1707.39612	0.01572
1705.33654	0.01906
1703.27695	0.02262
1701.21737	0.02591
1699.15778	0.02854
1697.09820	0.02996
1695.03861	0.03071
1692.97903	0.03146
1690.91944	0.03241
1688.85986	0.03363
1686.80027	0.03519
1684.74069	0.03738
1682.68110	0.03976
1680.62152	0.04140
1678.56193	0.04270
1676.50235	0.04444
1674.44276	0.04665
1672.38318	0.04880
1670.32359	0.05102
1668.26401	0.05338
1666.20442	0.05542
1664.14483	0.05728
1662.08525	0.05929
1660.02566	0.06137
1657.96608	0.06335
1655.90649	0.06520
1653.84691	0.06727
1651.78732	0.06933
1649.72774	0.07069
1647.66815	0.07181
1645.60857	0.07301
1643.54898	0.07391
1641.48940	0.07466
1639.42981	0.07564
1637.37023	0.07727
1635.31064	0.07970
1633.25106	0.08211
1631.19147	0.08426
1629.13189	0.08681
1627.07230	0.08984
1625.01272	0.09281
1622.95313	0.09536
1620.89355	0.09700
1618.83396	0.09731
1616.77438	0.09598
1614.71479	0.09325
1612.65520	0.08998
1610.59562	0.08612
1608.53603	0.08136
1606.47645	0.07595
1604.41686	0.07041
1602.35728	0.06504
1600.29769	0.06015
1598.23811	0.05601
1596.17852	0.05248
1594.11894	0.04935
1592.05935	0.04662
1589.99977	0.04432
1587.94018	0.04250
1585.88060	0.04119
1583.82101	0.04035
1581.76143	0.03994
1579.70184	0.03995
1577.64226	0.04042
1575.58267	0.04128
1573.52309	0.04239
1571.46350	0.04384
1569.40392	0.04575
1567.34433	0.04765
1565.28475	0.04941
1563.22516	0.05123
1561.16558	0.05342
1559.10599	0.05658
1557.04640	0.05972
1554.98682	0.06178
1552.92723	0.06358
1550.86765	0.06554
1548.80806	0.06751
1546.74848	0.06941
1544.68889	0.07152
1542.62931	0.07402
1540.56972	0.07668
1538.51014	0.07886
1536.45055	0.08034
1534.39097	0.08192
1532.33138	0.08378
1530.27180	0.08540
1528.21221	0.08679
1526.15263	0.08813
1524.09304	0.08931
1522.03346	0.09043
1519.97387	0.09159
1517.91429	0.09288
1515.85470	0.09419
1513.79512	0.09502
1511.73553	0.09527
1509.67595	0.09500
1507.61636	0.09364
1505.55677	0.09121
1503.49719	0.08909
1501.43760	0.08730
1499.37802	0.08498
1497.31843	0.08170
1495.25885	0.07817
1493.19926	0.07529
1491.13968	0.07243
1489.08009	0.06871
1487.02051	0.06480
1484.96092	0.06160
1482.90134	0.05894
1480.84175	0.05641
1478.78217	0.05414
1476.72258	0.05239
1474.66300	0.05098
1472.60341	0.04959
1470.54383	0.04833
1468.48424	0.04757
1466.42466	0.04721
1464.36507	0.04706
1462.30549	0.04718
1460.24590	0.04777
1458.18632	0.04905
1456.12673	0.05078
1454.06715	0.05234
1452.00756	0.05380
1449.94797	0.05526
1447.88839	0.05636
1445.82880	0.05680
1443.76922	0.05678
1441.70963	0.05665
1439.65005	0.05628
1437.59046	0.05522
1435.53088	0.05339
1433.47129	0.05146
1431.41171	0.04971
1429.35212	0.04814
1427.29254	0.04694
1425.23295	0.04621
1423.17337	0.04595
1421.11378	0.04608
1419.05420	0.04646
1416.99461	0.04688
1414.93503	0.04727
1412.87544	0.04772
1410.81586	0.04817
1408.75627	0.04848
1406.69669	0.04856
1404.63710	0.04837
1402.57752	0.04787
1400.51793	0.04726
1398.45834	0.04670
1396.39876	0.04617
1394.33917	0.04568
1392.27959	0.04540
1390.22000	0.04536
1388.16042	0.04539
1386.10083	0.04536
1384.04125	0.04527
1381.98166	0.04513
1379.92208	0.04500
1377.86249	0.04494
1375.80291	0.04489
1373.74332	0.04469
1371.68374	0.04437
1369.62415	0.04401
1367.56457	0.04351
1365.50498	0.04278
1363.44540	0.04171
1361.38581	0.04038
1359.32623	0.03908
1357.26664	0.03809
1355.20706	0.03746
1353.14747	0.03710
1351.08789	0.03694
1349.02830	0.03697
1346.96872	0.03712
1344.90913	0.03733
1342.84954	0.03767
1340.78996	0.03818
1338.73037	0.03868
1336.67079	0.03888
1334.61120	0.03874
1332.55162	0.03844
1330.49203	0.03806
1328.43245	0.03759
1326.37286	0.03703
1324.31328	0.03637
1322.25369	0.03573
1320.19411	0.03527
1318.13452	0.03497
1316.07494	0.03474
1314.01535	0.03459
1311.95577	0.03453
1309.89618	0.03446
1307.83660	0.03437
1305.77701	0.03432
1303.71743	0.03429
1301.65784	0.03428
1299.59826	0.03431
1297.53867	0.03435
1295.47909	0.03436
1293.41950	0.03442
1291.35991	0.03457
1289.30033	0.03473
1287.24074	0.03488
1285.18116	0.03514
1283.12157	0.03554
1281.06199	0.03609
1279.00240	0.03682
1276.94282	0.03766
1274.88323	0.03865
1272.82365	0.03987
1270.76406	0.04127
1268.70448	0.04259
1266.64489	0.04371
1264.58531	0.04459
1262.52572	0.04519
1260.46614	0.04553
1258.40655	0.04573
1256.34697	0.04603
1254.28738	0.04655
1252.22780	0.04720
1250.16821	0.04789
1248.10863	0.04868
1246.04904	0.04958
1243.98946	0.05063
1241.92987	0.05181
1239.87029	0.05298
1237.81070	0.05408
1235.75111	0.05518
1233.69153	0.05622
1231.63194	0.05703
1229.57236	0.05751
1227.51277	0.05760
1225.45319	0.05719
1223.39360	0.05649
1221.33402	0.05565
1219.27443	0.05454
1217.21485	0.05308
1215.15526	0.05137
1213.09568	0.04948
1211.03609	0.04753
1208.97651	0.04559
1206.91692	0.04365
1204.85734	0.04177
1202.79775	0.03998
1200.73817	0.03829
1198.67858	0.03663
1196.61900	0.03513
1194.55941	0.03394
1192.49983	0.03301
1190.44024	0.03226
1188.38066	0.03165
1186.32107	0.03122
1184.26149	0.03104
1182.20190	0.03107
1180.14231	0.03124
1178.08273	0.03171
1176.02314	0.03254
1173.96356	0.03354
1171.90397	0.03451
1169.84439	0.03534
1167.78480	0.03591
1165.72522	0.03623
1163.66563	0.03636
1161.60605	0.03620
1159.54646	0.03579
1157.48688	0.03530
1155.42729	0.03474
1153.36771	0.03392
1151.30812	0.03287
1149.24854	0.03181
1147.18895	0.03074
1145.12937	0.02966
1143.06978	0.02871
1141.01020	0.02791
1138.95061	0.02721
1136.89103	0.02667
1134.83144	0.02624
1132.77186	0.02588
1130.71227	0.02562
1128.65268	0.02541
1126.59310	0.02515
1124.53351	0.02487
1122.47393	0.02471
1120.41434	0.02472
1118.35476	0.02477
1116.29517	0.02477
1114.23559	0.02475
1112.17600	0.02476
1110.11642	0.02485
1108.05683	0.02499
1105.99725	0.02511
1103.93766	0.02520
1101.87808	0.02531
1099.81849	0.02539
1097.75891	0.02538
1095.69932	0.02533
1093.63974	0.02542
1091.58015	0.02582
1089.52057	0.02645
1087.46098	0.02727
1085.40140	0.02827
1083.34181	0.02931
1081.28223	0.03034
1079.22264	0.03137
1077.16306	0.03238
1075.10347	0.03327
1073.04388	0.03394
1070.98430	0.03453
1068.92471	0.03509
1066.86513	0.03540
1064.80554	0.03545
1062.74596	0.03539
1060.68637	0.03532
1058.62679	0.03522
1056.56720	0.03499
1054.50762	0.03470
1052.44803	0.03440
1050.38845	0.03402
1048.32886	0.03360
1046.26928	0.03325
1044.20969	0.03294
1042.15011	0.03263
1040.09052	0.03219
1038.03094	0.03163
1035.97135	0.03114
1033.91177	0.03061
1031.85218	0.02988
1029.79260	0.02911
1027.73301	0.02834
1025.67343	0.02764
1023.61384	0.02723
1021.55425	0.02721
1019.49467	0.02740
1017.43508	0.02769
1015.37550	0.02803
1013.31591	0.02816
1011.25633	0.02795
1009.19674	0.02763
1007.13716	0.02741
1005.07757	0.02723
1003.01799	0.02706
1000.95840	0.02694
998.89882	0.02675
996.83923	0.02635
994.77965	0.02575
992.72006	0.02491
990.66048	0.02386
988.60089	0.02282
986.54131	0.02202
984.48172	0.02160
982.42214	0.02163
980.36255	0.02200
978.30297	0.02239
976.24338	0.02262
974.18380	0.02258
972.12421	0.02225
970.06463	0.02174
968.00504	0.02119
965.94545	0.02074
963.88587	0.02046
961.82628	0.02024
959.76670	0.01993
957.70711	0.01961
955.64753	0.01943
953.58794	0.01937
951.52836	0.01931
949.46877	0.01923
947.40919	0.01912
945.34960	0.01900
943.29002	0.01886
941.23043	0.01868
939.17085	0.01854
937.11126	0.01847
935.05168	0.01843
932.99209	0.01842
930.93251	0.01851
928.87292	0.01855
926.81334	0.01835
924.75375	0.01802
922.69417	0.01766
920.63458	0.01731
918.57500	0.01694
916.51541	0.01651
914.45582	0.01608
912.39624	0.01569
910.33665	0.01534
908.27707	0.01515
906.21748	0.01511
904.15790	0.01506
902.09831	0.01505
900.03873	0.01507
897.97914	0.01507
895.91956	0.01501
893.85997	0.01485
891.80039	0.01465
889.74080	0.01453
887.68122	0.01451
885.62163	0.01453
883.56205	0.01458
881.50246	0.01464
879.44288	0.01457
877.38329	0.01437
875.32371	0.01422
873.26412	0.01419
871.20454	0.01425
869.14495	0.01432
867.08537	0.01442
865.02578	0.01464
862.96620	0.01498
860.90661	0.01534
858.84702	0.01576
856.78744	0.01624
854.72785	0.01663
852.66827	0.01690
850.60868	0.01707
848.54910	0.01708
846.48951	0.01696
844.42993	0.01691
842.37034	0.01697
840.31076	0.01704
838.25117	0.01721
836.19159	0.01757
834.13200	0.01807
832.07242	0.01849
830.01283	0.01870
827.95325	0.01875
825.89366	0.01880
823.83408	0.01880
821.77449	0.01866
819.71491	0.01845
817.65532	0.01844
815.59574	0.01869
813.53615	0.01897
811.47657	0.01915
809.41698	0.01922
807.35740	0.01929
805.29781	0.01949
803.23822	0.01972
801.17864	0.01989
799.11905	0.01989
797.05947	0.01983
794.99988	0.01993
792.94030	0.02013
790.88071	0.02034
788.82113	0.02062
786.76154	0.02103
784.70196	0.02144
782.64237	0.02171
780.58279	0.02196
778.52320	0.02239
776.46362	0.02293
774.40403	0.02346
772.34445	0.02395
770.28486	0.02438
768.22528	0.02471
766.16569	0.02495
764.10611	0.02519
762.04652	0.02553
759.98694	0.02602
757.92735	0.02655
755.86777	0.02695
753.80818	0.02725
751.74859	0.02754
749.68901	0.02799
747.62942	0.02866
745.56984	0.02931
743.51025	0.02992
741.45067	0.03061
739.39108	0.03129
737.33150	0.03193
735.27191	0.03266
733.21233	0.03346
731.15274	0.03425
729.09316	0.03502
727.03357	0.03575
724.97399	0.03644
722.91440	0.03705
720.85482	0.03779
718.79523	0.03836
716.73565	0.03906
714.67606	0.03961
712.61648	0.04021
710.55689	0.04091
708.49731	0.04156
706.43772	0.04218
704.37814	0.04284
702.31855	0.04356
700.25897	0.04417
698.19938	0.04457
696.13979	0.04484
694.08021	0.04515
692.02062	0.04556
689.96104	0.04587
687.90145	0.04606
685.84187	0.04630
683.78228	0.04665
681.72270	0.04692
679.66311	0.04696
677.60353	0.04700
675.54394	0.04723
673.48436	0.04744
671.42477	0.04602
669.36519	0.04364
667.30560	0.04814
665.24602	0.04679
663.18643	0.04799
661.12685	0.04862
659.06726	0.04879
657.00768	0.04904
654.94809	0.04933
652.88851	0.04961
650.82892	0.04980
648.76934	0.05004
646.70975	0.05024
644.65016	0.05052
642.59058	0.05073
640.53099	0.05082
638.47141	0.05089
636.41182	0.05098
634.35224	0.05103
632.29265	0.05108
630.23307	0.05121
628.17348	0.05143
626.11390	0.05153
624.05431	0.05149
621.99473	0.05164
619.93514	0.05203
617.87556	0.05234
615.81597	0.05254
613.75639	0.05284
611.69680	0.05315
609.63722	0.05344
607.57763	0.05373
605.51805	0.05373
603.45846	0.05339
601.39888	0.05300
599.33929	0.05270
597.27971	0.05236
595.22012	0.05202
593.16054	0.05193
591.10095	0.05196
589.04136	0.05194
586.98178	0.05195
584.92219	0.05214
582.86261	0.05232
580.80302	0.05237
578.74344	0.05238
576.68385	0.05242
574.62427	0.05245
572.56468	0.05252
570.50510	0.05267
568.44551	0.05289
566.38593	0.05329
564.32634	0.05396
562.26676	0.05478
560.20717	0.05567
558.14759	0.05667
556.08800	0.05781
554.02842	0.05897
551.96883	0.06001
549.90925	0.06088
547.84966	0.06148
545.79008	0.06174
543.73049	0.06188
541.67091	0.06186
539.61132	0.06149
537.55173	0.06096
535.49215	0.06059
533.43256	0.06033
531.37298	0.06000
529.31339	0.05972
527.25381	0.05960
525.19422	0.05950
523.13464	0.05920
521.07505	0.05886
519.01547	0.05865
516.95588	0.05861
514.89630	0.05874
512.83671	0.05877
510.77713	0.05854
508.71754	0.05830
506.65796	0.05829
504.59837	0.05822
502.53879	0.05793
500.47920	0.05768
498.41962	0.05760
496.36003	0.05749
494.30045	0.05732
492.24086	0.05732
490.18128	0.05738
488.12169	0.05725
486.06211	0.05707
484.00252	0.05704
481.94293	0.05695
479.88335	0.05672
477.82376	0.05642
475.76418	0.05607
473.70459	0.05572
471.64501	0.05533
469.58542	0.05486
467.52584	0.05445
465.46625	0.05431
463.40667	0.05444
461.34708	0.05458
459.28750	0.05449
457.22791	0.05406
455.16833	0.05358
453.10874	0.05343
451.04916	0.05331
448.98957	0.05295
446.92999	0.05257
444.87040	0.05238
442.81082	0.05235
440.75123	0.05235
438.69165	0.05228
436.63206	0.05207
434.57248	0.05173
432.51289	0.05160
430.45330	0.05218
428.39372	0.05336
426.33413	0.05426
424.27455	0.05430
422.21496	0.05390
420.15538	0.05386
418.09579	0.05397
416.03621	0.05365
413.97662	0.05330
411.91704	0.05308
409.85745	0.05278
407.79787	0.05252
405.73828	0.05245
403.67870	0.05241
401.61911	0.05208
399.55953	0.05140
