3997.65486	0.01083
3995.59527	0.01064
3993.53569	0.01044
3991.47610	0.01083
3989.41652	0.01131
3987.35693	0.01147
3985.29735	0.01150
3983.23776	0.01148
3981.17817	0.01141
3979.11859	0.01123
3977.05900	0.01084
3974.99942	0.01043
3972.93983	0.01070
3970.88025	0.01160
3968.82066	0.01188
3966.76108	0.01140
3964.70149	0.01121
3962.64191	0.01135
3960.58232	0.01102
3958.52274	0.01064
3956.46315	0.01071
3954.40357	0.01061
3952.34398	0.01018
3950.28440	0.01014
3948.22481	0.01067
3946.16523	0.01130
3944.10564	0.01154
3942.04606	0.01125
3939.98647	0.01084
3937.92689	0.01085
3935.86730	0.01131
3933.80772	0.01185
3931.74813	0.01182
3929.68855	0.01115
3927.62896	0.01070
3925.56937	0.01100
3923.50979	0.01162
3921.45020	0.01197
3919.39062	0.01186
3917.33103	0.01152
3915.27145	0.01102
3913.21186	0.01057
3911.15228	0.01055
3909.09269	0.01090
3907.03311	0.01122
3904.97352	0.01139
3902.91394	0.01140
3900.85435	0.01117
3898.79477	0.01113
3896.73518	0.01131
3894.67560	0.01129
3892.61601	0.01137
3890.55643	0.01153
3888.49684	0.01114
3886.43726	0.01056
3884.37767	0.01023
3882.31809	0.01012
3880.25850	0.01025
3878.19892	0.01056
3876.13933	0.01128
3874.07974	0.01246
3872.02016	0.01328
3869.96057	0.01303
3867.90099	0.01209
3865.84140	0.01127
3863.78182	0.01095
3861.72223	0.01104
3859.66265	0.01129
3857.60306	0.01140
3855.54348	0.01084
3853.48389	0.00961
3851.42431	0.00917
3849.36472	0.00947
3847.30514	0.00941
3845.24555	0.00942
3843.18597	0.01033
3841.12638	0.01157
3839.06680	0.01157
3837.00721	0.00993
3834.94763	0.00846
3832.88804	0.00827
3830.82846	0.00857
3828.76887	0.00868
3826.70929	0.00876
3824.64970	0.00881
3822.59012	0.00868
3820.53053	0.00908
3818.47094	0.01032
3816.41136	0.01115
3814.35177	0.01116
3812.29219	0.01104
3810.23260	0.01103
3808.17302	0.01109
3806.11343	0.01083
3804.05385	0.01011
3801.99426	0.00961
3799.93468	0.00967
3797.87509	0.00981
3795.81551	0.00985
3793.75592	0.00995
3791.69634	0.01012
3789.63675	0.01031
3787.57717	0.01031
3785.51758	0.01020
3783.45800	0.01034
3781.39841	0.01042
3779.33883	0.01006
3777.27924	0.00954
3775.21966	0.00911
3773.16007	0.00904
3771.10049	0.00937
3769.04090	0.00951
3766.98132	0.00960
3764.92173	0.01034
3762.86214	0.01125
3760.80256	0.01151
3758.74297	0.01121
3756.68339	0.01094
3754.62380	0.01109
3752.56422	0.01152
3750.50463	0.01169
3748.44505	0.01147
3746.38546	0.01105
3744.32588	0.01083
3742.26629	0.01120
3740.20671	0.01159
3738.14712	0.01137
3736.08754	0.01088
3734.02795	0.01064
3731.96837	0.01045
3729.90878	0.01049
3727.84920	0.01102
3725.78961	0.01151
3723.73003	0.01146
3721.67044	0.01113
3719.61086	0.01101
3717.55127	0.01118
3715.49169	0.01139
3713.43210	0.01135
3711.37251	0.01120
3709.31293	0.01131
3707.25334	0.01162
3705.19376	0.01137
3703.13417	0.01073
3701.07459	0.01055
3699.01500	0.01047
3696.95542	0.00990
3694.89583	0.00956
3692.83625	0.00989
3690.77666	0.01035
3688.71708	0.01047
3686.65749	0.01084
3684.59791	0.01139
3682.53832	0.01130
3680.47874	0.01043
3678.41915	0.00956
3676.35957	0.00925
3674.29998	0.00940
3672.24040	0.00985
3670.18081	0.01017
3668.12123	0.01019
3666.06164	0.01034
3664.00206	0.01069
3661.94247	0.01089
3659.88289	0.01103
3657.82330	0.01140
3655.76371	0.01186
3653.70413	0.01226
3651.64454	0.01276
3649.58496	0.01321
3647.52537	0.01309
3645.46579	0.01249
3643.40620	0.01213
3641.34662	0.01213
3639.28703	0.01222
3637.22745	0.01256
3635.16786	0.01331
3633.10828	0.01413
3631.04869	0.01460
3628.98911	0.01486
3626.92952	0.01542
3624.86994	0.01629
3622.81035	0.01676
3620.75077	0.01625
3618.69118	0.01528
3616.63160	0.01493
3614.57201	0.01518
3612.51243	0.01549
3610.45284	0.01557
3608.39326	0.01521
3606.33367	0.01496
3604.27408	0.01549
3602.21450	0.01637
3600.15491	0.01706
3598.09533	0.01760
3596.03574	0.01805
3593.97616	0.01814
3591.91657	0.01800
3589.85699	0.01825
3587.79740	0.01892
3585.73782	0.01899
3583.67823	0.01858
3581.61865	0.01850
3579.55906	0.01872
3577.49948	0.01891
3575.43989	0.01928
3573.38031	0.01997
3571.32072	0.02075
3569.26114	0.02145
3567.20155	0.02197
3565.14197	0.02211
3563.08238	0.02197
3561.02280	0.02175
3558.96321	0.02153
3556.90363	0.02125
3554.84404	0.02092
3552.78446	0.02092
3550.72487	0.02164
3548.66528	0.02276
3546.60570	0.02358
3544.54611	0.02397
3542.48653	0.02415
3540.42694	0.02423
3538.36736	0.02438
3536.30777	0.02476
3534.24819	0.02530
3532.18860	0.02560
3530.12902	0.02552
3528.06943	0.02533
3526.00985	0.02545
3523.95026	0.02610
3521.89068	0.02681
3519.83109	0.02705
3517.77151	0.02730
3515.71192	0.02791
3513.65234	0.02840
3511.59275	0.02858
3509.53317	0.02874
3507.47358	0.02882
3505.41400	0.02872
3503.35441	0.02864
3501.29483	0.02854
3499.23524	0.02846
3497.17565	0.02846
3495.11607	0.02839
3493.05648	0.02839
3490.99690	0.02843
3488.93731	0.02809
3486.87773	0.02794
3484.81814	0.02873
3482.75856	0.02959
3480.69897	0.02979
3478.63939	0.02983
3476.57980	0.03002
3474.52022	0.03038
3472.46063	0.03065
3470.40105	0.03052
3468.34146	0.03027
3466.28188	0.03020
3464.22229	0.03023
3462.16271	0.03051
3460.10312	0.03106
3458.04354	0.03167
3455.98395	0.03207
3453.92437	0.03233
3451.86478	0.03269
3449.80520	0.03298
3447.74561	0.03319
3445.68603	0.03330
3443.62644	0.03304
3441.56685	0.03255
3439.50727	0.03227
3437.44768	0.03250
3435.38810	0.03286
3433.32851	0.03290
3431.26893	0.03288
3429.20934	0.03313
3427.14976	0.03363
3425.09017	0.03409
3423.03059	0.03448
3420.97100	0.03488
3418.91142	0.03473
3416.85183	0.03446
3414.79225	0.03501
3412.73266	0.03569
3410.67308	0.03595
3408.61349	0.03634
3406.55391	0.03669
3404.49432	0.03656
3402.43474	0.03666
3400.37515	0.03748
3398.31557	0.03794
3396.25598	0.03783
3394.19640	0.03809
3392.13681	0.03876
3390.07723	0.03924
3388.01764	0.03942
3385.95805	0.03972
3383.89847	0.04027
3381.83888	0.04044
3379.77930	0.04021
3377.71971	0.04009
3375.66013	0.04028
3373.60054	0.04067
3371.54096	0.04102
3369.48137	0.04141
3367.42179	0.04230
3365.36220	0.04346
3363.30262	0.04389
3361.24303	0.04377
3359.18345	0.04384
3357.12386	0.04418
3355.06428	0.04464
3353.00469	0.04505
3350.94511	0.04540
3348.88552	0.04584
3346.82594	0.04649
3344.76635	0.04746
3342.70677	0.04858
3340.64718	0.04951
3338.58760	0.05027
3336.52801	0.05105
3334.46842	0.05189
3332.40884	0.05273
3330.34925	0.05332
3328.28967	0.05373
3326.23008	0.05453
3324.17050	0.05584
3322.11091	0.05725
3320.05133	0.05844
3317.99174	0.05951
3315.93216	0.06083
3313.87257	0.06217
3311.81299	0.06294
3309.75340	0.06361
3307.69382	0.06502
3305.63423	0.06704
3303.57465	0.06886
3301.51506	0.07020
3299.45548	0.07134
3297.39589	0.07245
3295.33631	0.07379
3293.27672	0.07570
3291.21714	0.07765
3289.15755	0.07877
3287.09797	0.07954
3285.03838	0.08085
3282.97880	0.08224
3280.91921	0.08298
3278.85962	0.08314
3276.80004	0.08297
3274.74045	0.08265
3272.68087	0.08254
3270.62128	0.08264
3268.56170	0.08266
3266.50211	0.08215
3264.44253	0.08101
3262.38294	0.07987
3260.32336	0.07902
3258.26377	0.07792
3256.20419	0.07644
3254.14460	0.07512
3252.08502	0.07417
3250.02543	0.07345
3247.96585	0.07267
3245.90626	0.07161
3243.84668	0.07036
3241.78709	0.06916
3239.72751	0.06803
3237.66792	0.06688
3235.60834	0.06598
3233.54875	0.06552
3231.48917	0.06515
3229.42958	0.06441
3227.36999	0.06334
3225.31041	0.06234
3223.25082	0.06129
3221.19124	0.06003
3219.13165	0.05906
3217.07207	0.05851
3215.01248	0.05787
3212.95290	0.05712
3210.89331	0.05658
3208.83373	0.05623
3206.77414	0.05590
3204.71456	0.05538
3202.65497	0.05462
3200.59539	0.05394
3198.53580	0.05338
3196.47622	0.05263
3194.41663	0.05143
3192.35705	0.05016
3190.29746	0.04955
3188.23788	0.04949
3186.17829	0.04895
3184.11871	0.04766
3182.05912	0.04648
3179.99954	0.04589
3177.93995	0.04532
3175.88037	0.04452
3173.82078	0.04384
3171.76119	0.04325
3169.70161	0.04264
3167.64202	0.04212
3165.58244	0.04160
3163.52285	0.04089
3161.46327	0.04005
3159.40368	0.03925
3157.34410	0.03855
3155.28451	0.03796
3153.22493	0.03758
3151.16534	0.03728
3149.10576	0.03686
3147.04617	0.03649
3144.98659	0.03624
3142.92700	0.03593
3140.86742	0.03540
3138.80783	0.03485
3136.74825	0.03462
3134.68866	0.03462
3132.62908	0.03461
3130.56949	0.03454
3128.50991	0.03444
3126.45032	0.03439
3124.39074	0.03456
3122.33115	0.03470
3120.27156	0.03456
3118.21198	0.03447
3116.15239	0.03454
3114.09281	0.03448
3112.03322	0.03422
3109.97364	0.03407
3107.91405	0.03432
3105.85447	0.03472
3103.79488	0.03493
3101.73530	0.03523
3099.67571	0.03552
3097.61613	0.03539
3095.55654	0.03526
3093.49696	0.03555
3091.43737	0.03602
3089.37779	0.03620
3087.31820	0.03612
3085.25862	0.03628
3083.19903	0.03677
3081.13945	0.03723
3079.07986	0.03738
3077.02028	0.03724
3074.96069	0.03698
3072.90111	0.03687
3070.84152	0.03687
3068.78194	0.03677
3066.72235	0.03641
3064.66276	0.03600
3062.60318	0.03594
3060.54359	0.03595
3058.48401	0.03564
3056.42442	0.03515
3054.36484	0.03470
3052.30525	0.03434
3050.24567	0.03375
3048.18608	0.03299
3046.12650	0.03253
3044.06691	0.03229
3042.00733	0.03182
3039.94774	0.03120
3037.88816	0.03080
3035.82857	0.03058
3033.76899	0.03025
3031.70940	0.02977
3029.64982	0.02909
3027.59023	0.02836
3025.53065	0.02789
3023.47106	0.02769
3021.41148	0.02742
3019.35189	0.02696
3017.29231	0.02643
3015.23272	0.02616
3013.17313	0.02621
3011.11355	0.02610
3009.05396	0.02572
3006.99438	0.02558
3004.93479	0.02574
3002.87521	0.02580
3000.81562	0.02588
2998.75604	0.02617
2996.69645	0.02646
2994.63687	0.02677
2992.57728	0.02717
2990.51770	0.02752
2988.45811	0.02786
2986.39853	0.02808
2984.33894	0.02808
2982.27936	0.02826
2980.21977	0.02857
2978.16019	0.02865
2976.10060	0.02870
2974.04102	0.02905
2971.98143	0.02958
2969.92185	0.02979
2967.86226	0.02963
2965.80268	0.02944
2963.74309	0.02923
2961.68351	0.02893
2959.62392	0.02877
2957.56433	0.02853
2955.50475	0.02800
2953.44516	0.02773
2951.38558	0.02800
2949.32599	0.02837
2947.26641	0.02871
2945.20682	0.02915
2943.14724	0.02964
2941.08765	0.03008
2939.02807	0.03059
2936.96848	0.03119
2934.90890	0.03163
2932.84931	0.03206
2930.78973	0.03243
2928.73014	0.03228
2926.67056	0.03200
2924.61097	0.03206
2922.55139	0.03217
2920.49180	0.03186
2918.43222	0.03109
2916.37263	0.03028
2914.31305	0.02948
2912.25346	0.02837
2910.19388	0.02715
2908.13429	0.02615
2906.07471	0.02565
2904.01512	0.02551
2901.95553	0.02526
2899.89595	0.02469
2897.83636	0.02425
2895.77678	0.02420
2893.71719	0.02398
2891.65761	0.02357
2889.59802	0.02336
2887.53844	0.02326
2885.47885	0.02334
2883.41927	0.02348
2881.35968	0.02344
2879.30010	0.02358
2877.24051	0.02392
2875.18093	0.02392
2873.12134	0.02353
2871.06176	0.02326
2869.00217	0.02317
2866.94259	0.02273
2864.88300	0.02200
2862.82342	0.02168
2860.76383	0.02187
2858.70425	0.02193
2856.64466	0.02182
2854.58508	0.02206
2852.52549	0.02249
2850.46590	0.02251
2848.40632	0.02194
2846.34673	0.02108
2844.28715	0.02029
2842.22756	0.01983
2840.16798	0.01963
2838.10839	0.01923
2836.04881	0.01870
2833.98922	0.01862
2831.92964	0.01892
2829.87005	0.01898
2827.81047	0.01866
2825.75088	0.01838
2823.69130	0.01831
2821.63171	0.01841
2819.57213	0.01856
2817.51254	0.01850
2815.45296	0.01833
2813.39337	0.01827
2811.33379	0.01826
2809.27420	0.01813
2807.21462	0.01782
2805.15503	0.01766
2803.09545	0.01763
2801.03586	0.01735
2798.97628	0.01711
2796.91669	0.01717
2794.85710	0.01726
2792.79752	0.01731
2790.73793	0.01748
2788.67835	0.01768
2786.61876	0.01750
2784.55918	0.01704
2782.49959	0.01674
2780.44001	0.01664
2778.38042	0.01644
2776.32084	0.01634
2774.26125	0.01645
2772.20167	0.01648
2770.14208	0.01632
2768.08250	0.01596
2766.02291	0.01563
2763.96333	0.01567
2761.90374	0.01580
2759.84416	0.01560
2757.78457	0.01530
2755.72499	0.01524
2753.66540	0.01534
2751.60582	0.01539
2749.54623	0.01526
2747.48665	0.01512
2745.42706	0.01509
2743.36747	0.01492
2741.30789	0.01458
2739.24830	0.01429
2737.18872	0.01426
2735.12913	0.01440
2733.06955	0.01434
2731.00996	0.01412
2728.95038	0.01411
2726.89079	0.01418
2724.83121	0.01398
2722.77162	0.01358
2720.71204	0.01345
2718.65245	0.01358
2716.59287	0.01364
2714.53328	0.01359
2712.47370	0.01357
2710.41411	0.01358
2708.35453	0.01359
2706.29494	0.01366
2704.23536	0.01376
2702.17577	0.01365
2700.11619	0.01337
2698.05660	0.01314
2695.99702	0.01311
2693.93743	0.01318
2691.87785	0.01309
2689.81826	0.01290
2687.75867	0.01284
2685.69909	0.01290
2683.63950	0.01290
2681.57992	0.01279
2679.52033	0.01279
2677.46075	0.01294
2675.40116	0.01289
2673.34158	0.01271
2671.28199	0.01274
2669.22241	0.01280
2667.16282	0.01273
2665.10324	0.01277
2663.04365	0.01298
2660.98407	0.01307
2658.92448	0.01303
2656.86490	0.01291
2654.80531	0.01271
2652.74573	0.01266
2650.68614	0.01277
2648.62656	0.01269
2646.56697	0.01243
2644.50739	0.01224
2642.44780	0.01232
2640.38822	0.01269
2638.32863	0.01300
2636.26904	0.01295
2634.20946	0.01252
2632.14987	0.01193
2630.09029	0.01170
2628.03070	0.01198
2625.97112	0.01227
2623.91153	0.01226
2621.85195	0.01210
2619.79236	0.01213
2617.73278	0.01239
2615.67319	0.01238
2613.61361	0.01191
2611.55402	0.01155
2609.49444	0.01173
2607.43485	0.01220
2605.37527	0.01244
2603.31568	0.01224
2601.25610	0.01199
2599.19651	0.01193
2597.13693	0.01169
2595.07734	0.01118
2593.01776	0.01083
2590.95817	0.01079
2588.89859	0.01075
2586.83900	0.01081
2584.77942	0.01124
2582.71983	0.01146
2580.66024	0.01121
2578.60066	0.01105
2576.54107	0.01107
2574.48149	0.01058
2572.42190	0.00984
2570.36232	0.00970
2568.30273	0.00999
2566.24315	0.01017
2564.18356	0.01010
2562.12398	0.00993
2560.06439	0.00967
2558.00481	0.00946
2555.94522	0.00959
2553.88564	0.00982
2551.82605	0.00976
2549.76647	0.00972
2547.70688	0.00991
2545.64730	0.00996
2543.58771	0.00962
2541.52813	0.00924
2539.46854	0.00914
2537.40896	0.00928
2535.34937	0.00961
2533.28979	0.00984
2531.23020	0.00994
2529.17062	0.00994
2527.11103	0.00951
2525.05144	0.00913
2522.99186	0.00934
2520.93227	0.00966
2518.87269	0.00968
2516.81310	0.00960
2514.75352	0.00957
2512.69393	0.00944
2510.63435	0.00928
2508.57476	0.00934
2506.51518	0.00946
2504.45559	0.00935
2502.39601	0.00926
2500.33642	0.00938
2498.27684	0.00932
2496.21725	0.00908
2494.15767	0.00906
2492.09808	0.00919
2490.03850	0.00908
2487.97891	0.00887
2485.91933	0.00895
2483.85974	0.00933
2481.80016	0.00968
2479.74057	0.00966
2477.68099	0.00948
2475.62140	0.00935
2473.56181	0.00917
2471.50223	0.00913
2469.44264	0.00951
2467.38306	0.00999
2465.32347	0.01017
2463.26389	0.01001
2461.20430	0.00955
2459.14472	0.00881
2457.08513	0.00843
2455.02555	0.00891
2452.96596	0.00947
2450.90638	0.00954
2448.84679	0.00934
2446.78721	0.00909
2444.72762	0.00905
2442.66804	0.00945
2440.60845	0.00975
2438.54887	0.00960
2436.48928	0.00945
2434.42970	0.00936
2432.37011	0.00912
2430.31053	0.00891
2428.25094	0.00880
2426.19136	0.00847
2424.13177	0.00797
2422.07219	0.00805
2420.01260	0.00873
2417.95301	0.00892
2415.89343	0.00853
2413.83384	0.00836
2411.77426	0.00841
2409.71467	0.00825
2407.65509	0.00805
2405.59550	0.00806
2403.53592	0.00816
2401.47633	0.00812
2399.41675	0.00746
2397.35716	0.00745
2395.29758	0.00774
2393.23799	0.00797
2391.17841	0.00820
2389.11882	0.00860
2387.05924	0.00928
2384.99965	0.01020
2382.94007	0.01107
2380.88048	0.01174
2378.82090	0.01222
2376.76131	0.01290
2374.70173	0.01316
2372.64214	0.01333
2370.58256	0.01355
2368.52297	0.01321
2366.46338	0.01335
2364.40380	0.01275
2362.34421	0.01264
2360.28463	0.01440
2358.22504	0.01495
2356.16546	0.01497
2354.10587	0.01492
2352.04629	0.01557
2349.98670	0.01808
2347.92712	0.01719
2345.86753	0.01455
2343.80795	0.01393
2341.74836	0.01307
2339.68878	0.01358
2337.62919	0.01362
2335.56961	0.01276
2333.51002	0.01349
2331.45044	0.01377
2329.39085	0.01484
2327.33127	0.01441
2325.27168	0.01441
2323.21210	0.01383
2321.15251	0.01347
2319.09293	0.01320
2317.03334	0.01283
2314.97376	0.01260
2312.91417	0.01221
2310.85458	0.01182
2308.79500	0.01176
2306.73541	0.01160
2304.67583	0.01115
2302.61624	0.01054
2300.55666	0.01043
2298.49707	0.01083
2296.43749	0.01105
2294.37790	0.01083
2292.31832	0.01075
2290.25873	0.01078
2288.19915	0.01066
2286.13956	0.01008
2284.07998	0.00935
2282.02039	0.00927
2279.96081	0.00966
2277.90122	0.00960
2275.84164	0.00915
2273.78205	0.00879
2271.72247	0.00839
2269.66288	0.00789
2267.60330	0.00792
2265.54371	0.00887
2263.48413	0.00957
2261.42454	0.00936
2259.36495	0.00879
2257.30537	0.00819
2255.24578	0.00792
2253.18620	0.00834
2251.12661	0.00884
2249.06703	0.00877
2247.00744	0.00884
2244.94786	0.00855
2242.88827	0.00832
2240.82869	0.00808
2238.76910	0.00736
2236.70952	0.00677
2234.64993	0.00698
2232.59035	0.00766
2230.53076	0.00827
2228.47118	0.00808
2226.41159	0.00721
2224.35201	0.00675
2222.29242	0.00659
2220.23284	0.00648
2218.17325	0.00675
2216.11367	0.00726
2214.05408	0.00789
2211.99450	0.00777
2209.93491	0.00669
2207.87533	0.00594
2205.81574	0.00627
2203.75615	0.00712
2201.69657	0.00762
2199.63698	0.00785
2197.57740	0.00765
2195.51781	0.00695
2193.45823	0.00684
2191.39864	0.00761
2189.33906	0.00839
2187.27947	0.00811
2185.21989	0.00707
2183.16030	0.00678
2181.10072	0.00773
2179.04113	0.00874
2176.98155	0.00873
2174.92196	0.00839
2172.86238	0.00809
2170.80279	0.00737
2168.74321	0.00705
2166.68362	0.00749
2164.62404	0.00850
2162.56445	0.00978
2160.50487	0.00890
2158.44528	0.00559
2156.38570	0.00356
2154.32611	0.00390
2152.26652	0.00488
2150.20694	0.00514
2148.14735	0.00501
2146.08777	0.00511
2144.02818	0.00548
2141.96860	0.00597
2139.90901	0.00624
2137.84943	0.00597
2135.78984	0.00533
2133.73026	0.00506
2131.67067	0.00554
2129.61109	0.00645
2127.55150	0.00693
2125.49192	0.00647
2123.43233	0.00603
2121.37275	0.00661
2119.31316	0.00759
2117.25358	0.00789
2115.19399	0.00793
2113.13441	0.00833
2111.07482	0.00860
2109.01524	0.00820
2106.95565	0.00703
2104.89607	0.00617
2102.83648	0.00678
2100.77690	0.00763
2098.71731	0.00759
2096.65772	0.00703
2094.59814	0.00649
2092.53855	0.00663
2090.47897	0.00721
2088.41938	0.00740
2086.35980	0.00704
2084.30021	0.00634
2082.24063	0.00578
2080.18104	0.00563
2078.12146	0.00555
2076.06187	0.00571
2074.00229	0.00620
2071.94270	0.00653
2069.88312	0.00701
2067.82353	0.00756
2065.76395	0.00723
2063.70436	0.00642
2061.64478	0.00638
2059.58519	0.00738
2057.52561	0.00843
2055.46602	0.00841
2053.40644	0.00771
2051.34685	0.00728
2049.28727	0.00730
2047.22768	0.00763
2045.16810	0.00819
2043.10851	0.00868
2041.04892	0.00831
2038.98934	0.00700
2036.92975	0.00599
2034.87017	0.00597
2032.81058	0.00666
2030.75100	0.00704
2028.69141	0.00630
2026.63183	0.00515
2024.57224	0.00438
2022.51266	0.00464
2020.45307	0.00563
2018.39349	0.00579
2016.33390	0.00514
2014.27432	0.00515
2012.21473	0.00631
2010.15515	0.00727
2008.09556	0.00662
2006.03598	0.00529
2003.97639	0.00515
2001.91681	0.00598
1999.85722	0.00615
1997.79764	0.00538
1995.73805	0.00511
1993.67847	0.00585
1991.61888	0.00660
1989.55929	0.00669
1987.49971	0.00612
1985.44012	0.00551
1983.38054	0.00598
1981.32095	0.00719
1979.26137	0.00739
1977.20178	0.00623
1975.14220	0.00474
1973.08261	0.00394
1971.02303	0.00408
1968.96344	0.00464
1966.90386	0.00551
1964.84427	0.00605
1962.78469	0.00536
1960.72510	0.00426
1958.66552	0.00372
1956.60593	0.00353
1954.54635	0.00409
1952.48676	0.00552
1950.42718	0.00629
1948.36759	0.00578
1946.30801	0.00498
1944.24842	0.00467
1942.18884	0.00500
1940.12925	0.00548
1938.06967	0.00530
1936.01008	0.00473
1933.95049	0.00460
1931.89091	0.00480
1929.83132	0.00484
1927.77174	0.00452
1925.71215	0.00409
1923.65257	0.00416
1921.59298	0.00486
1919.53340	0.00543
1917.47381	0.00543
1915.41423	0.00525
1913.35464	0.00510
1911.29506	0.00490
1909.23547	0.00474
1907.17589	0.00481
1905.11630	0.00514
1903.05672	0.00532
1900.99713	0.00503
1898.93755	0.00455
1896.87796	0.00430
1894.81838	0.00438
1892.75879	0.00463
1890.69921	0.00494
1888.63962	0.00512
1886.58004	0.00500
1884.52045	0.00474
1882.46086	0.00455
1880.40128	0.00464
1878.34169	0.00507
1876.28211	0.00548
1874.22252	0.00559
1872.16294	0.00558
1870.10335	0.00577
1868.04377	0.00590
1865.98418	0.00552
1863.92460	0.00499
1861.86501	0.00477
1859.80543	0.00478
1857.74584	0.00490
1855.68626	0.00502
1853.62667	0.00501
1851.56709	0.00505
1849.50750	0.00537
1847.44792	0.00597
1845.38833	0.00656
1843.32875	0.00663
1841.26916	0.00603
1839.20958	0.00536
1837.14999	0.00512
1835.09041	0.00522
1833.03082	0.00535
1830.97124	0.00541
1828.91165	0.00537
1826.85206	0.00521
1824.79248	0.00511
1822.73289	0.00509
1820.67331	0.00500
1818.61372	0.00490
1816.55414	0.00495
1814.49455	0.00511
1812.43497	0.00524
1810.37538	0.00527
1808.31580	0.00524
1806.25621	0.00521
1804.19663	0.00525
1802.13704	0.00531
1800.07746	0.00536
1798.01787	0.00547
1795.95829	0.00563
1793.89870	0.00572
1791.83912	0.00571
1789.77953	0.00560
1787.71995	0.00545
1785.66036	0.00537
1783.60078	0.00540
1781.54119	0.00550
1779.48161	0.00553
1777.42202	0.00550
1775.36243	0.00549
1773.30285	0.00549
1771.24326	0.00560
1769.18368	0.00582
1767.12409	0.00596
1765.06451	0.00597
1763.00492	0.00596
1760.94534	0.00597
1758.88575	0.00596
1756.82617	0.00589
1754.76658	0.00587
1752.70700	0.00607
1750.64741	0.00648
1748.58783	0.00679
1746.52824	0.00684
1744.46866	0.00680
1742.40907	0.00678
1740.34949	0.00671
1738.28990	0.00661
1736.23032	0.00672
1734.17073	0.00703
1732.11115	0.00718
1730.05156	0.00712
1727.99198	0.00707
1725.93239	0.00716
1723.87281	0.00742
1721.81322	0.00780
1719.75363	0.00827
1717.69405	0.00899
1715.63446	0.00997
1713.57488	0.01087
1711.51529	0.01174
1709.45571	0.01305
1707.39612	0.01536
1705.33654	0.01874
1703.27695	0.02222
1701.21737	0.02522
1699.15778	0.02769
1697.09820	0.02910
1695.03861	0.02971
1692.97903	0.03037
1690.91944	0.03148
1688.85986	0.03295
1686.80027	0.03456
1684.74069	0.03641
1682.68110	0.03832
1680.62152	0.03978
1678.56193	0.04112
1676.50235	0.04284
1674.44276	0.04488
1672.38318	0.04684
1670.32359	0.04885
1668.26401	0.05104
1666.20442	0.05300
1664.14483	0.05478
1662.08525	0.05673
1660.02566	0.05880
1657.96608	0.06077
1655.90649	0.06265
1653.84691	0.06462
1651.78732	0.06634
1649.72774	0.06746
1647.66815	0.06842
1645.60857	0.06934
1643.54898	0.07007
1641.48940	0.07087
1639.42981	0.07194
1637.37023	0.07327
1635.31064	0.07503
1633.25106	0.07714
1631.19147	0.07941
1629.13189	0.08202
1627.07230	0.08493
1625.01272	0.08776
1622.95313	0.09017
1620.89355	0.09183
1618.83396	0.09234
1616.77438	0.09128
1614.71479	0.08892
1612.65520	0.08615
1610.59562	0.08283
1608.53603	0.07859
1606.47645	0.07369
1604.41686	0.06857
1602.35728	0.06350
1600.29769	0.05886
1598.23811	0.05495
1596.17852	0.05157
1594.11894	0.04847
1592.05935	0.04569
1589.99977	0.04340
1587.94018	0.04167
1585.88060	0.04044
1583.82101	0.03965
1581.76143	0.03927
1579.70184	0.03927
1577.64226	0.03965
1575.58267	0.04041
1573.52309	0.04141
1571.46350	0.04266
1569.40392	0.04426
1567.34433	0.04596
1565.28475	0.04762
1563.22516	0.04928
1561.16558	0.05117
1559.10599	0.05383
1557.04640	0.05668
1554.98682	0.05875
1552.92723	0.06052
1550.86765	0.06230
1548.80806	0.06410
1546.74848	0.06591
1544.68889	0.06794
1542.62931	0.07023
1540.56972	0.07245
1538.51014	0.07418
1536.45055	0.07552
1534.39097	0.07700
1532.33138	0.07865
1530.27180	0.08013
1528.21221	0.08147
1526.15263	0.08272
1524.09304	0.08380
1522.03346	0.08470
1519.97387	0.08555
1517.91429	0.08654
1515.85470	0.08754
1513.79512	0.08828
1511.73553	0.08873
1509.67595	0.08873
1507.61636	0.08745
1505.55677	0.08492
1503.49719	0.08303
1501.43760	0.08179
1499.37802	0.08003
1497.31843	0.07713
1495.25885	0.07388
1493.19926	0.07130
1491.13968	0.06871
1489.08009	0.06524
1487.02051	0.06169
1484.96092	0.05887
1482.90134	0.05646
1480.84175	0.05414
1478.78217	0.05212
1476.72258	0.05050
1474.66300	0.04906
1472.60341	0.04763
1470.54383	0.04648
1468.48424	0.04588
1466.42466	0.04557
1464.36507	0.04540
1462.30549	0.04551
1460.24590	0.04605
1458.18632	0.04721
1456.12673	0.04886
1454.06715	0.05040
1452.00756	0.05167
1449.94797	0.05276
1447.88839	0.05362
1445.82880	0.05411
1443.76922	0.05421
1441.70963	0.05408
1439.65005	0.05369
1437.59046	0.05274
1435.53088	0.05113
1433.47129	0.04939
1431.41171	0.04773
1429.35212	0.04615
1427.29254	0.04496
1425.23295	0.04431
1423.17337	0.04410
1421.11378	0.04421
1419.05420	0.04453
1416.99461	0.04493
1414.93503	0.04529
1412.87544	0.04568
1410.81586	0.04609
1408.75627	0.04636
1406.69669	0.04637
1404.63710	0.04614
1402.57752	0.04574
1400.51793	0.04527
1398.45834	0.04478
1396.39876	0.04432
1394.33917	0.04388
1392.27959	0.04357
1390.22000	0.04345
1388.16042	0.04341
1386.10083	0.04331
1384.04125	0.04319
1381.98166	0.04305
1379.92208	0.04287
1377.86249	0.04274
1375.80291	0.04268
1373.74332	0.04258
1371.68374	0.04236
1369.62415	0.04196
1367.56457	0.04139
1365.50498	0.04067
1363.44540	0.03974
1361.38581	0.03854
1359.32623	0.03737
1357.26664	0.03649
1355.20706	0.03589
1353.14747	0.03550
1351.08789	0.03529
1349.02830	0.03526
1346.96872	0.03539
1344.90913	0.03560
1342.84954	0.03595
1340.78996	0.03644
1338.73037	0.03686
1336.67079	0.03697
1334.61120	0.03684
1332.55162	0.03657
1330.49203	0.03616
1328.43245	0.03566
1326.37286	0.03516
1324.31328	0.03464
1322.25369	0.03408
1320.19411	0.03355
1318.13452	0.03314
1316.07494	0.03293
1314.01535	0.03289
1311.95577	0.03283
1309.89618	0.03269
1307.83660	0.03259
1305.77701	0.03258
1303.71743	0.03260
1301.65784	0.03259
1299.59826	0.03258
1297.53867	0.03259
1295.47909	0.03258
1293.41950	0.03260
1291.35991	0.03265
1289.30033	0.03269
1287.24074	0.03281
1285.18116	0.03302
1283.12157	0.03332
1281.06199	0.03372
1279.00240	0.03431
1276.94282	0.03519
1274.88323	0.03622
1272.82365	0.03729
1270.76406	0.03844
1268.70448	0.03959
1266.64489	0.04056
1264.58531	0.04130
1262.52572	0.04180
1260.46614	0.04207
1258.40655	0.04230
1256.34697	0.04267
1254.28738	0.04318
1252.22780	0.04374
1250.16821	0.04431
1248.10863	0.04492
1246.04904	0.04561
1243.98946	0.04638
1241.92987	0.04727
1239.87029	0.04829
1237.81070	0.04934
1235.75111	0.05036
1233.69153	0.05128
1231.63194	0.05197
1229.57236	0.05232
1227.51277	0.05228
1225.45319	0.05186
1223.39360	0.05121
1221.33402	0.05043
1219.27443	0.04941
1217.21485	0.04807
1215.15526	0.04656
1213.09568	0.04504
1211.03609	0.04345
1208.97651	0.04177
1206.91692	0.04010
1204.85734	0.03847
1202.79775	0.03689
1200.73817	0.03537
1198.67858	0.03395
1196.61900	0.03268
1194.55941	0.03158
1192.49983	0.03065
1190.44024	0.02992
1188.38066	0.02942
1186.32107	0.02913
1184.26149	0.02907
1182.20190	0.02911
1180.14231	0.02915
1178.08273	0.02942
1176.02314	0.03007
1173.96356	0.03090
1171.90397	0.03174
1169.84439	0.03251
1167.78480	0.03305
1165.72522	0.03330
1163.66563	0.03330
1161.60605	0.03316
1159.54646	0.03296
1157.48688	0.03262
1155.42729	0.03202
1153.36771	0.03117
1151.30812	0.03021
1149.24854	0.02925
1147.18895	0.02829
1145.12937	0.02741
1143.06978	0.02670
1141.01020	0.02605
1138.95061	0.02541
1136.89103	0.02491
1134.83144	0.02450
1132.77186	0.02414
1130.71227	0.02394
1128.65268	0.02379
1126.59310	0.02355
1124.53351	0.02329
1122.47393	0.02311
1120.41434	0.02302
1118.35476	0.02294
1116.29517	0.02287
1114.23559	0.02287
1112.17600	0.02292
1110.11642	0.02300
1108.05683	0.02316
1105.99725	0.02327
1103.93766	0.02329
1101.87808	0.02332
1099.81849	0.02333
1097.75891	0.02331
1095.69932	0.02330
1093.63974	0.02342
1091.58015	0.02375
1089.52057	0.02427
1087.46098	0.02494
1085.40140	0.02568
1083.34181	0.02640
1081.28223	0.02718
1079.22264	0.02803
1077.16306	0.02887
1075.10347	0.02958
1073.04388	0.03013
1070.98430	0.03056
1068.92471	0.03096
1066.86513	0.03127
1064.80554	0.03139
1062.74596	0.03136
1060.68637	0.03131
1058.62679	0.03120
1056.56720	0.03098
1054.50762	0.03070
1052.44803	0.03037
1050.38845	0.03003
1048.32886	0.02974
1046.26928	0.02942
1044.20969	0.02908
1042.15011	0.02873
1040.09052	0.02836
1038.03094	0.02799
1035.97135	0.02763
1033.91177	0.02720
1031.85218	0.02666
1029.79260	0.02603
1027.73301	0.02540
1025.67343	0.02478
1023.61384	0.02427
1021.55425	0.02407
1019.49467	0.02422
1017.43508	0.02452
1015.37550	0.02483
1013.31591	0.02495
1011.25633	0.02474
1009.19674	0.02446
1007.13716	0.02430
1005.07757	0.02420
1003.01799	0.02414
1000.95840	0.02413
998.89882	0.02397
996.83923	0.02351
994.77965	0.02283
992.72006	0.02206
990.66048	0.02121
988.60089	0.02031
986.54131	0.01959
984.48172	0.01927
982.42214	0.01939
980.36255	0.01972
978.30297	0.02002
976.24338	0.02027
974.18380	0.02031
972.12421	0.02002
970.06463	0.01949
968.00504	0.01893
965.94545	0.01847
963.88587	0.01822
961.82628	0.01807
959.76670	0.01787
957.70711	0.01761
955.64753	0.01738
953.58794	0.01722
951.52836	0.01716
949.46877	0.01714
947.40919	0.01710
945.34960	0.01704
943.29002	0.01690
941.23043	0.01666
939.17085	0.01645
937.11126	0.01639
935.05168	0.01637
932.99209	0.01631
930.93251	0.01630
928.87292	0.01636
926.81334	0.01633
924.75375	0.01607
922.69417	0.01572
920.63458	0.01540
918.57500	0.01512
916.51541	0.01479
914.45582	0.01443
912.39624	0.01412
910.33665	0.01389
908.27707	0.01368
906.21748	0.01350
904.15790	0.01344
902.09831	0.01346
900.03873	0.01344
897.97914	0.01339
895.91956	0.01332
893.85997	0.01315
891.80039	0.01293
889.74080	0.01286
887.68122	0.01294
885.62163	0.01305
883.56205	0.01311
881.50246	0.01308
879.44288	0.01288
877.38329	0.01267
875.32371	0.01263
873.26412	0.01267
871.20454	0.01270
869.14495	0.01276
867.08537	0.01289
865.02578	0.01305
862.96620	0.01328
860.90661	0.01356
858.84702	0.01389
856.78744	0.01427
854.72785	0.01458
852.66827	0.01468
850.60868	0.01474
848.54910	0.01485
846.48951	0.01487
844.42993	0.01480
842.37034	0.01478
840.31076	0.01484
838.25117	0.01500
836.19159	0.01521
834.13200	0.01542
832.07242	0.01567
830.01283	0.01591
827.95325	0.01603
825.89366	0.01604
823.83408	0.01599
821.77449	0.01592
819.71491	0.01590
817.65532	0.01600
815.59574	0.01619
813.53615	0.01637
811.47657	0.01645
809.41698	0.01647
807.35740	0.01647
805.29781	0.01640
803.23822	0.01639
801.17864	0.01656
799.11905	0.01671
797.05947	0.01668
794.99988	0.01674
792.94030	0.01696
790.88071	0.01709
788.82113	0.01724
786.76154	0.01761
784.70196	0.01800
782.64237	0.01817
780.58279	0.01830
778.52320	0.01859
776.46362	0.01898
774.40403	0.01941
772.34445	0.01983
770.28486	0.02016
768.22528	0.02039
766.16569	0.02061
764.10611	0.02088
762.04652	0.02110
759.98694	0.02130
757.92735	0.02161
755.86777	0.02205
753.80818	0.02246
751.74859	0.02267
749.68901	0.02283
747.62942	0.02319
745.56984	0.02367
743.51025	0.02421
741.45067	0.02478
739.39108	0.02526
737.33150	0.02574
735.27191	0.02635
733.21233	0.02705
731.15274	0.02764
729.09316	0.02813
727.03357	0.02867
724.97399	0.02919
722.91440	0.02954
720.85482	0.02979
718.79523	0.03032
716.73565	0.03079
714.67606	0.03122
712.61648	0.03162
710.55689	0.03206
708.49731	0.03258
706.43772	0.03311
704.37814	0.03352
702.31855	0.03389
700.25897	0.03431
698.19938	0.03468
696.13979	0.03487
694.08021	0.03517
692.02062	0.03571
689.96104	0.03618
687.90145	0.03634
685.84187	0.03639
683.78228	0.03650
681.72270	0.03663
679.66311	0.03663
677.60353	0.03657
675.54394	0.03654
673.48436	0.03654
671.42477	0.03710
669.36519	0.03769
667.30560	0.03510
665.24602	0.03722
663.18643	0.03719
661.12685	0.03716
659.06726	0.03749
657.00768	0.03772
654.94809	0.03776
652.88851	0.03785
650.82892	0.03809
648.76934	0.03829
646.70975	0.03846
644.65016	0.03846
642.59058	0.03838
640.53099	0.03829
638.47141	0.03830
636.41182	0.03839
634.35224	0.03843
632.29265	0.03841
630.23307	0.03843
628.17348	0.03847
626.11390	0.03844
624.05431	0.03842
621.99473	0.03858
619.93514	0.03882
617.87556	0.03896
615.81597	0.03899
613.75639	0.03909
611.69680	0.03937
609.63722	0.03964
607.57763	0.03967
605.51805	0.03952
603.45846	0.03946
601.39888	0.03947
599.33929	0.03935
597.27971	0.03904
595.22012	0.03855
593.16054	0.03810
591.10095	0.03796
589.04136	0.03800
586.98178	0.03814
584.92219	0.03837
582.86261	0.03849
580.80302	0.03839
578.74344	0.03818
576.68385	0.03810
574.62427	0.03813
572.56468	0.03819
570.50510	0.03834
568.44551	0.03864
566.38593	0.03897
564.32634	0.03924
562.26676	0.03954
560.20717	0.04007
558.14759	0.04086
556.08800	0.04169
554.02842	0.04234
551.96883	0.04289
549.90925	0.04334
547.84966	0.04356
545.79008	0.04366
543.73049	0.04380
541.67091	0.04375
539.61132	0.04347
537.55173	0.04325
535.49215	0.04308
533.43256	0.04292
531.37298	0.04293
529.31339	0.04299
527.25381	0.04291
525.19422	0.04265
523.13464	0.04245
521.07505	0.04226
519.01547	0.04190
516.95588	0.04166
514.89630	0.04183
512.83671	0.04203
510.77713	0.04195
508.71754	0.04178
506.65796	0.04166
504.59837	0.04151
502.53879	0.04129
500.47920	0.04110
498.41962	0.04101
496.36003	0.04093
494.30045	0.04083
492.24086	0.04075
490.18128	0.04067
488.12169	0.04059
486.06211	0.04059
484.00252	0.04060
481.94293	0.04059
479.88335	0.04059
477.82376	0.04040
475.76418	0.04002
473.70459	0.03958
471.64501	0.03917
469.58542	0.03889
467.52584	0.03866
465.46625	0.03844
463.40667	0.03834
461.34708	0.03844
459.28750	0.03859
457.22791	0.03853
455.16833	0.03824
453.10874	0.03801
451.04916	0.03787
448.98957	0.03771
446.92999	0.03757
444.87040	0.03740
442.81082	0.03712
440.75123	0.03675
438.69165	0.03646
436.63206	0.03624
434.57248	0.03610
432.51289	0.03633
430.45330	0.03695
428.39372	0.03757
426.33413	0.03791
424.27455	0.03781
422.21496	0.03753
420.15538	0.03768
418.09579	0.03806
416.03621	0.03790
413.97662	0.03743
411.91704	0.03710
409.85745	0.03702
407.79787	0.03695
405.73828	0.03661
403.67870	0.03616
401.61911	0.03579
399.55953	0.03538
