3997.65486	0.02129
3995.59527	0.02120
3993.53569	0.02107
3991.47610	0.02131
3989.41652	0.02159
3987.35693	0.02187
3985.29735	0.02227
3983.23776	0.02254
3981.17817	0.02233
3979.11859	0.02165
3977.05900	0.02102
3974.99942	0.02090
3972.93983	0.02109
3970.88025	0.02123
3968.82066	0.02119
3966.76108	0.02113
3964.70149	0.02126
3962.64191	0.02134
3960.58232	0.02104
3958.52274	0.02070
3956.46315	0.02053
3954.40357	0.02028
3952.34398	0.02003
3950.28440	0.02026
3948.22481	0.02108
3946.16523	0.02169
3944.10564	0.02138
3942.04606	0.02064
3939.98647	0.02021
3937.92689	0.02015
3935.86730	0.02028
3933.80772	0.02049
3931.74813	0.02087
3929.68855	0.02139
3927.62896	0.02200
3925.56937	0.02235
3923.50979	0.02204
3921.45020	0.02130
3919.39062	0.02053
3917.33103	0.01998
3915.27145	0.01965
3913.21186	0.01935
3911.15228	0.01926
3909.09269	0.01944
3907.03311	0.01965
3904.97352	0.02017
3902.91394	0.02102
3900.85435	0.02121
3898.79477	0.02051
3896.73518	0.01978
3894.67560	0.01979
3892.61601	0.02052
3890.55643	0.02102
3888.49684	0.02071
3886.43726	0.02017
3884.37767	0.01977
3882.31809	0.01947
3880.25850	0.01932
3878.19892	0.01955
3876.13933	0.02048
3874.07974	0.02166
3872.02016	0.02192
3869.96057	0.02119
3867.90099	0.02035
3865.84140	0.01992
3863.78182	0.02010
3861.72223	0.02064
3859.66265	0.02086
3857.60306	0.02047
3855.54348	0.01977
3853.48389	0.01951
3851.42431	0.02008
3849.36472	0.02027
3847.30514	0.01947
3845.24555	0.01882
3843.18597	0.01959
3841.12638	0.02125
3839.06680	0.02173
3837.00721	0.02015
3834.94763	0.01820
3832.88804	0.01717
3830.82846	0.01687
3828.76887	0.01691
3826.70929	0.01719
3824.64970	0.01765
3822.59012	0.01830
3820.53053	0.01908
3818.47094	0.01931
3816.41136	0.01912
3814.35177	0.01924
3812.29219	0.01945
3810.23260	0.01935
3808.17302	0.01912
3806.11343	0.01877
3804.05385	0.01837
3801.99426	0.01829
3799.93468	0.01824
3797.87509	0.01775
3795.81551	0.01743
3793.75592	0.01791
3791.69634	0.01880
3789.63675	0.01932
3787.57717	0.01907
3785.51758	0.01858
3783.45800	0.01841
3781.39841	0.01833
3779.33883	0.01822
3777.27924	0.01820
3775.21966	0.01803
3773.16007	0.01807
3771.10049	0.01866
3769.04090	0.01928
3766.98132	0.01965
3764.92173	0.01985
3762.86214	0.01960
3760.80256	0.01900
3758.74297	0.01870
3756.68339	0.01878
3754.62380	0.01902
3752.56422	0.01978
3750.50463	0.02092
3748.44505	0.02141
3746.38546	0.02089
3744.32588	0.01990
3742.26629	0.01961
3740.20671	0.02026
3738.14712	0.02102
3736.08754	0.02111
3734.02795	0.02006
3731.96837	0.01878
3729.90878	0.01868
3727.84920	0.01965
3725.78961	0.02051
3723.73003	0.02050
3721.67044	0.01993
3719.61086	0.01927
3717.55127	0.01897
3715.49169	0.01930
3713.43210	0.01989
3711.37251	0.02008
3709.31293	0.01983
3707.25334	0.01967
3705.19376	0.01931
3703.13417	0.01888
3701.07459	0.01928
3699.01500	0.02038
3696.95542	0.02113
3694.89583	0.02120
3692.83625	0.02089
3690.77666	0.02028
3688.71708	0.01979
3686.65749	0.02014
3684.59791	0.02085
3682.53832	0.02136
3680.47874	0.02155
3678.41915	0.02128
3676.35957	0.02104
3674.29998	0.02177
3672.24040	0.02324
3670.18081	0.02443
3668.12123	0.02483
3666.06164	0.02483
3664.00206	0.02496
3661.94247	0.02532
3659.88289	0.02610
3657.82330	0.02722
3655.76371	0.02789
3653.70413	0.02794
3651.64454	0.02816
3649.58496	0.02913
3647.52537	0.03076
3645.46579	0.03213
3643.40620	0.03304
3641.34662	0.03390
3639.28703	0.03471
3637.22745	0.03518
3635.16786	0.03528
3633.10828	0.03536
3631.04869	0.03592
3628.98911	0.03747
3626.92952	0.03945
3624.86994	0.04080
3622.81035	0.04140
3620.75077	0.04152
3618.69118	0.04164
3616.63160	0.04232
3614.57201	0.04380
3612.51243	0.04576
3610.45284	0.04724
3608.39326	0.04769
3606.33367	0.04786
3604.27408	0.04862
3602.21450	0.04992
3600.15491	0.05136
3598.09533	0.05260
3596.03574	0.05362
3593.97616	0.05440
3591.91657	0.05502
3589.85699	0.05620
3587.79740	0.05814
3585.73782	0.05944
3583.67823	0.05978
3581.61865	0.06020
3579.55906	0.06097
3577.49948	0.06201
3575.43989	0.06353
3573.38031	0.06521
3571.32072	0.06664
3569.26114	0.06827
3567.20155	0.07019
3565.14197	0.07131
3563.08238	0.07153
3561.02280	0.07175
3558.96321	0.07235
3556.90363	0.07306
3554.84404	0.07367
3552.78446	0.07453
3550.72487	0.07607
3548.66528	0.07805
3546.60570	0.08007
3544.54611	0.08196
3542.48653	0.08312
3540.42694	0.08333
3538.36736	0.08348
3536.30777	0.08457
3534.24819	0.08630
3532.18860	0.08739
3530.12902	0.08754
3528.06943	0.08772
3526.00985	0.08853
3523.95026	0.08989
3521.89068	0.09139
3519.83109	0.09250
3517.77151	0.09331
3515.71192	0.09428
3513.65234	0.09535
3511.59275	0.09636
3509.53317	0.09734
3507.47358	0.09828
3505.41400	0.09915
3503.35441	0.09993
3501.29483	0.10044
3499.23524	0.10086
3497.17565	0.10163
3495.11607	0.10257
3493.05648	0.10341
3490.99690	0.10407
3488.93731	0.10444
3486.87773	0.10504
3484.81814	0.10588
3482.75856	0.10628
3480.69897	0.10652
3478.63939	0.10703
3476.57980	0.10764
3474.52022	0.10840
3472.46063	0.10910
3470.40105	0.10960
3468.34146	0.11011
3466.28188	0.11043
3464.22229	0.11052
3462.16271	0.11106
3460.10312	0.11231
3458.04354	0.11336
3455.98395	0.11372
3453.92437	0.11413
3451.86478	0.11499
3449.80520	0.11601
3447.74561	0.11678
3445.68603	0.11720
3443.62644	0.11751
3441.56685	0.11815
3439.50727	0.11906
3437.44768	0.11974
3435.38810	0.12033
3433.32851	0.12110
3431.26893	0.12196
3429.20934	0.12265
3427.14976	0.12307
3425.09017	0.12375
3423.03059	0.12509
3420.97100	0.12677
3418.91142	0.12805
3416.85183	0.12861
3414.79225	0.12919
3412.73266	0.13023
3410.67308	0.13152
3408.61349	0.13317
3406.55391	0.13493
3404.49432	0.13596
3402.43474	0.13668
3400.37515	0.13804
3398.31557	0.13966
3396.25598	0.14098
3394.19640	0.14202
3392.13681	0.14274
3390.07723	0.14348
3388.01764	0.14460
3385.95805	0.14583
3383.89847	0.14710
3381.83888	0.14849
3379.77930	0.14988
3377.71971	0.15095
3375.66013	0.15179
3373.60054	0.15301
3371.54096	0.15469
3369.48137	0.15644
3367.42179	0.15833
3365.36220	0.16051
3363.30262	0.16254
3361.24303	0.16437
3359.18345	0.16639
3357.12386	0.16868
3355.06428	0.17104
3353.00469	0.17333
3350.94511	0.17562
3348.88552	0.17795
3346.82594	0.18012
3344.76635	0.18243
3342.70677	0.18556
3340.64718	0.18930
3338.58760	0.19306
3336.52801	0.19678
3334.46842	0.20054
3332.40884	0.20451
3330.34925	0.20859
3328.28967	0.21250
3326.23008	0.21676
3324.17050	0.22174
3322.11091	0.22696
3320.05133	0.23218
3317.99174	0.23752
3315.93216	0.24326
3313.87257	0.24920
3311.81299	0.25481
3309.75340	0.26053
3307.69382	0.26682
3305.63423	0.27309
3303.57465	0.27906
3301.51506	0.28539
3299.45548	0.29226
3297.39589	0.29889
3295.33631	0.30494
3293.27672	0.31106
3291.21714	0.31722
3289.15755	0.32265
3287.09797	0.32743
3285.03838	0.33204
3282.97880	0.33593
3280.91921	0.33834
3278.85962	0.33907
3276.80004	0.33864
3274.74045	0.33766
3272.68087	0.33598
3270.62128	0.33311
3268.56170	0.32910
3266.50211	0.32425
3264.44253	0.31861
3262.38294	0.31251
3260.32336	0.30646
3258.26377	0.30058
3256.20419	0.29486
3254.14460	0.28916
3252.08502	0.28336
3250.02543	0.27767
3247.96585	0.27213
3245.90626	0.26655
3243.84668	0.26106
3241.78709	0.25595
3239.72751	0.25118
3237.66792	0.24671
3235.60834	0.24256
3233.54875	0.23848
3231.48917	0.23434
3229.42958	0.23024
3227.36999	0.22617
3225.31041	0.22216
3223.25082	0.21823
3221.19124	0.21448
3219.13165	0.21090
3217.07207	0.20742
3215.01248	0.20410
3212.95290	0.20074
3210.89331	0.19719
3208.83373	0.19385
3206.77414	0.19079
3204.71456	0.18773
3202.65497	0.18473
3200.59539	0.18171
3198.53580	0.17863
3196.47622	0.17545
3194.41663	0.17190
3192.35705	0.16801
3190.29746	0.16443
3188.23788	0.16154
3186.17829	0.15874
3184.11871	0.15578
3182.05912	0.15306
3179.99954	0.15041
3177.93995	0.14744
3175.88037	0.14428
3173.82078	0.14128
3171.76119	0.13866
3169.70161	0.13632
3167.64202	0.13396
3165.58244	0.13177
3163.52285	0.12975
3161.46327	0.12769
3159.40368	0.12587
3157.34410	0.12425
3155.28451	0.12242
3153.22493	0.12030
3151.16534	0.11808
3149.10576	0.11597
3147.04617	0.11420
3144.98659	0.11295
3142.92700	0.11201
3140.86742	0.11103
3138.80783	0.10992
3136.74825	0.10857
3134.68866	0.10738
3132.62908	0.10681
3130.56949	0.10654
3128.50991	0.10627
3126.45032	0.10624
3124.39074	0.10640
3122.33115	0.10654
3120.27156	0.10671
3118.21198	0.10696
3116.15239	0.10713
3114.09281	0.10702
3112.03322	0.10705
3109.97364	0.10768
3107.91405	0.10857
3105.85447	0.10925
3103.79488	0.10977
3101.73530	0.11064
3099.67571	0.11176
3097.61613	0.11267
3095.55654	0.11342
3093.49696	0.11439
3091.43737	0.11581
3089.37779	0.11702
3087.31820	0.11766
3085.25862	0.11825
3083.19903	0.11893
3081.13945	0.11953
3079.07986	0.11977
3077.02028	0.11951
3074.96069	0.11908
3072.90111	0.11876
3070.84152	0.11840
3068.78194	0.11786
3066.72235	0.11683
3064.66276	0.11527
3062.60318	0.11411
3060.54359	0.11319
3058.48401	0.11169
3056.42442	0.10973
3054.36484	0.10755
3052.30525	0.10517
3050.24567	0.10272
3048.18608	0.10053
3046.12650	0.09883
3044.06691	0.09729
3042.00733	0.09531
3039.94774	0.09296
3037.88816	0.09082
3035.82857	0.08899
3033.76899	0.08721
3031.70940	0.08547
3029.64982	0.08388
3027.59023	0.08257
3025.53065	0.08158
3023.47106	0.08059
3021.41148	0.07941
3019.35189	0.07819
3017.29231	0.07729
3015.23272	0.07702
3013.17313	0.07693
3011.11355	0.07627
3009.05396	0.07542
3006.99438	0.07524
3004.93479	0.07560
3002.87521	0.07605
3000.81562	0.07678
2998.75604	0.07786
2996.69645	0.07900
2994.63687	0.08019
2992.57728	0.08171
2990.51770	0.08347
2988.45811	0.08515
2986.39853	0.08660
2984.33894	0.08773
2982.27936	0.08861
2980.21977	0.08933
2978.16019	0.08971
2976.10060	0.08968
2974.04102	0.08959
2971.98143	0.08953
2969.92185	0.08936
2967.86226	0.08907
2965.80268	0.08859
2963.74309	0.08791
2961.68351	0.08721
2959.62392	0.08671
2957.56433	0.08619
2955.50475	0.08544
2953.44516	0.08497
2951.38558	0.08523
2949.32599	0.08631
2947.26641	0.08799
2945.20682	0.08988
2943.14724	0.09161
2941.08765	0.09307
2939.02807	0.09470
2936.96848	0.09660
2934.90890	0.09834
2932.84931	0.09973
2930.78973	0.10043
2928.73014	0.10002
2926.67056	0.09876
2924.61097	0.09709
2922.55139	0.09516
2920.49180	0.09315
2918.43222	0.09104
2916.37263	0.08867
2914.31305	0.08589
2912.25346	0.08253
2910.19388	0.07909
2908.13429	0.07648
2906.07471	0.07484
2904.01512	0.07369
2901.95553	0.07260
2899.89595	0.07136
2897.83636	0.07001
2895.77678	0.06887
2893.71719	0.06809
2891.65761	0.06764
2889.59802	0.06722
2887.53844	0.06656
2885.47885	0.06612
2883.41927	0.06641
2881.35968	0.06721
2879.30010	0.06784
2877.24051	0.06803
2875.18093	0.06790
2873.12134	0.06743
2871.06176	0.06656
2869.00217	0.06538
2866.94259	0.06370
2864.88300	0.06176
2862.82342	0.06040
2860.76383	0.05988
2858.70425	0.05962
2856.64466	0.05931
2854.58508	0.05916
2852.52549	0.05898
2850.46590	0.05830
2848.40632	0.05682
2846.34673	0.05486
2844.28715	0.05295
2842.22756	0.05142
2840.16798	0.05034
2838.10839	0.04941
2836.04881	0.04858
2833.98922	0.04814
2831.92964	0.04791
2829.87005	0.04751
2827.81047	0.04709
2825.75088	0.04697
2823.69130	0.04686
2821.63171	0.04641
2819.57213	0.04580
2817.51254	0.04532
2815.45296	0.04513
2813.39337	0.04500
2811.33379	0.04474
2809.27420	0.04461
2807.21462	0.04437
2805.15503	0.04389
2803.09545	0.04345
2801.03586	0.04309
2798.97628	0.04281
2796.91669	0.04258
2794.85710	0.04229
2792.79752	0.04211
2790.73793	0.04201
2788.67835	0.04170
2786.61876	0.04116
2784.55918	0.04062
2782.49959	0.04021
2780.44001	0.03970
2778.38042	0.03908
2776.32084	0.03879
2774.26125	0.03868
2772.20167	0.03836
2770.14208	0.03796
2768.08250	0.03753
2766.02291	0.03722
2763.96333	0.03703
2761.90374	0.03654
2759.84416	0.03596
2757.78457	0.03576
2755.72499	0.03556
2753.66540	0.03508
2751.60582	0.03458
2749.54623	0.03426
2747.48665	0.03407
2745.42706	0.03379
2743.36747	0.03321
2741.30789	0.03253
2739.24830	0.03209
2737.18872	0.03184
2735.12913	0.03163
2733.06955	0.03155
2731.00996	0.03152
2728.95038	0.03143
2726.89079	0.03130
2724.83121	0.03094
2722.77162	0.03038
2720.71204	0.02984
2718.65245	0.02946
2716.59287	0.02930
2714.53328	0.02924
2712.47370	0.02917
2710.41411	0.02900
2708.35453	0.02872
2706.29494	0.02849
2704.23536	0.02836
2702.17577	0.02825
2700.11619	0.02812
2698.05660	0.02798
2695.99702	0.02800
2693.93743	0.02803
2691.87785	0.02783
2689.81826	0.02761
2687.75867	0.02742
2685.69909	0.02711
2683.63950	0.02686
2681.57992	0.02677
2679.52033	0.02680
2677.46075	0.02680
2675.40116	0.02664
2673.34158	0.02653
2671.28199	0.02641
2669.22241	0.02615
2667.16282	0.02590
2665.10324	0.02584
2663.04365	0.02589
2660.98407	0.02594
2658.92448	0.02600
2656.86490	0.02597
2654.80531	0.02589
2652.74573	0.02590
2650.68614	0.02583
2648.62656	0.02556
2646.56697	0.02546
2644.50739	0.02569
2642.44780	0.02591
2640.38822	0.02603
2638.32863	0.02596
2636.26904	0.02555
2634.20946	0.02509
2632.14987	0.02471
2630.09029	0.02450
2628.03070	0.02470
2625.97112	0.02488
2623.91153	0.02468
2621.85195	0.02444
2619.79236	0.02437
2617.73278	0.02442
2615.67319	0.02423
2613.61361	0.02376
2611.55402	0.02348
2609.49444	0.02366
2607.43485	0.02403
2605.37527	0.02395
2603.31568	0.02336
2601.25610	0.02298
2599.19651	0.02296
2597.13693	0.02262
2595.07734	0.02199
2593.01776	0.02155
2590.95817	0.02134
2588.89859	0.02126
2586.83900	0.02131
2584.77942	0.02131
2582.71983	0.02107
2580.66024	0.02072
2578.60066	0.02059
2576.54107	0.02059
2574.48149	0.02023
2572.42190	0.01974
2570.36232	0.01959
2568.30273	0.01953
2566.24315	0.01938
2564.18356	0.01925
2562.12398	0.01908
2560.06439	0.01895
2558.00481	0.01901
2555.94522	0.01912
2553.88564	0.01890
2551.82605	0.01845
2549.76647	0.01838
2547.70688	0.01868
2545.64730	0.01874
2543.58771	0.01830
2541.52813	0.01801
2539.46854	0.01817
2537.40896	0.01823
2535.34937	0.01804
2533.28979	0.01765
2531.23020	0.01740
2529.17062	0.01750
2527.11103	0.01748
2525.05144	0.01750
2522.99186	0.01794
2520.93227	0.01808
2518.87269	0.01760
2516.81310	0.01732
2514.75352	0.01735
2512.69393	0.01723
2510.63435	0.01699
2508.57476	0.01685
2506.51518	0.01693
2504.45559	0.01721
2502.39601	0.01746
2500.33642	0.01734
2498.27684	0.01704
2496.21725	0.01685
2494.15767	0.01707
2492.09808	0.01745
2490.03850	0.01726
2487.97891	0.01694
2485.91933	0.01717
2483.85974	0.01754
2481.80016	0.01762
2479.74057	0.01746
2477.68099	0.01723
2475.62140	0.01689
2473.56181	0.01654
2471.50223	0.01630
2469.44264	0.01617
2467.38306	0.01628
2465.32347	0.01668
2463.26389	0.01697
2461.20430	0.01673
2459.14472	0.01620
2457.08513	0.01595
2455.02555	0.01616
2452.96596	0.01655
2450.90638	0.01647
2448.84679	0.01590
2446.78721	0.01554
2444.72762	0.01562
2442.66804	0.01592
2440.60845	0.01608
2438.54887	0.01600
2436.48928	0.01604
2434.42970	0.01602
2432.37011	0.01572
2430.31053	0.01543
2428.25094	0.01528
2426.19136	0.01526
2424.13177	0.01526
2422.07219	0.01535
2420.01260	0.01558
2417.95301	0.01548
2415.89343	0.01483
2413.83384	0.01409
2411.77426	0.01379
2409.71467	0.01419
2407.65509	0.01479
2405.59550	0.01490
2403.53592	0.01463
2401.47633	0.01417
2399.41675	0.01298
2397.35716	0.01306
2395.29758	0.01366
2393.23799	0.01411
2391.17841	0.01459
2389.11882	0.01532
2387.05924	0.01619
2384.99965	0.01693
2382.94007	0.01733
2380.88048	0.01740
2378.82090	0.01727
2376.76131	0.01721
2374.70173	0.01728
2372.64214	0.01728
2370.58256	0.01713
2368.52297	0.01718
2366.46338	0.01717
2364.40380	0.01676
2362.34421	0.01665
2360.28463	0.01696
2358.22504	0.01717
2356.16546	0.01747
2354.10587	0.01804
2352.04629	0.01950
2349.98670	0.02141
2347.92712	0.02163
2345.86753	0.01996
2343.80795	0.01898
2341.74836	0.01898
2339.68878	0.01887
2337.62919	0.01848
2335.56961	0.01815
2333.51002	0.01819
2331.45044	0.01867
2329.39085	0.01952
2327.33127	0.02043
2325.27168	0.02054
2323.21210	0.01958
2321.15251	0.01841
2319.09293	0.01750
2317.03334	0.01701
2314.97376	0.01676
2312.91417	0.01669
2310.85458	0.01669
2308.79500	0.01677
2306.73541	0.01701
2304.67583	0.01714
2302.61624	0.01693
2300.55666	0.01681
2298.49707	0.01711
2296.43749	0.01733
2294.37790	0.01706
2292.31832	0.01667
2290.25873	0.01653
2288.19915	0.01658
2286.13956	0.01633
2284.07998	0.01554
2282.02039	0.01478
2279.96081	0.01428
2277.90122	0.01371
2275.84164	0.01329
2273.78205	0.01331
2271.72247	0.01333
2269.66288	0.01313
2267.60330	0.01315
2265.54371	0.01360
2263.48413	0.01379
2261.42454	0.01354
2259.36495	0.01339
2257.30537	0.01348
2255.24578	0.01382
2253.18620	0.01431
2251.12661	0.01436
2249.06703	0.01370
2247.00744	0.01372
2244.94786	0.01345
2242.88827	0.01290
2240.82869	0.01244
2238.76910	0.01208
2236.70952	0.01205
2234.64993	0.01254
2232.59035	0.01304
2230.53076	0.01310
2228.47118	0.01310
2226.41159	0.01298
2224.35201	0.01222
2222.29242	0.01122
2220.23284	0.01097
2218.17325	0.01181
2216.11367	0.01273
2214.05408	0.01267
2211.99450	0.01189
2209.93491	0.01153
2207.87533	0.01196
2205.81574	0.01216
2203.75615	0.01203
2201.69657	0.01215
2199.63698	0.01201
2197.57740	0.01166
2195.51781	0.01119
2193.45823	0.01065
2191.39864	0.01081
2189.33906	0.01170
2187.27947	0.01225
2185.21989	0.01196
2183.16030	0.01214
2181.10072	0.01286
2179.04113	0.01263
2176.98155	0.01184
2174.92196	0.01181
2172.86238	0.01199
2170.80279	0.01159
2168.74321	0.01133
2166.68362	0.01177
2164.62404	0.01294
2162.56445	0.01378
2160.50487	0.01155
2158.44528	0.00721
2156.38570	0.00552
2154.32611	0.00692
2152.26652	0.00919
2150.20694	0.01098
2148.14735	0.01166
2146.08777	0.01147
2144.02818	0.01104
2141.96860	0.01059
2139.90901	0.01035
2137.84943	0.01007
2135.78984	0.00930
2133.73026	0.00864
2131.67067	0.00912
2129.61109	0.01060
2127.55150	0.01160
2125.49192	0.01138
2123.43233	0.01092
2121.37275	0.01126
2119.31316	0.01195
2117.25358	0.01231
2115.19399	0.01300
2113.13441	0.01403
2111.07482	0.01425
2109.01524	0.01371
2106.95565	0.01300
2104.89607	0.01264
2102.83648	0.01317
2100.77690	0.01359
2098.71731	0.01287
2096.65772	0.01145
2094.59814	0.01046
2092.53855	0.01069
2090.47897	0.01162
2088.41938	0.01232
2086.35980	0.01227
2084.30021	0.01168
2082.24063	0.01112
2080.18104	0.01079
2078.12146	0.01060
2076.06187	0.01083
2074.00229	0.01127
2071.94270	0.01135
2069.88312	0.01131
2067.82353	0.01129
2065.76395	0.01117
2063.70436	0.01103
2061.64478	0.01101
2059.58519	0.01142
2057.52561	0.01205
2055.46602	0.01200
2053.40644	0.01184
2051.34685	0.01270
2049.28727	0.01348
2047.22768	0.01311
2045.16810	0.01232
2043.10851	0.01167
2041.04892	0.01073
2038.98934	0.00982
2036.92975	0.00962
2034.87017	0.00993
2032.81058	0.01028
2030.75100	0.00969
2028.69141	0.00817
2026.63183	0.00732
2024.57224	0.00765
2022.51266	0.00872
2020.45307	0.00967
2018.39349	0.00964
2016.33390	0.00925
2014.27432	0.00939
2012.21473	0.01001
2010.15515	0.00998
2008.09556	0.00867
2006.03598	0.00747
2003.97639	0.00750
2001.91681	0.00814
1999.85722	0.00868
1997.79764	0.00848
1995.73805	0.00808
1993.67847	0.00855
1991.61888	0.00935
1989.55929	0.00956
1987.49971	0.00920
1985.44012	0.00873
1983.38054	0.00893
1981.32095	0.00969
1979.26137	0.00968
1977.20178	0.00907
1975.14220	0.00875
1973.08261	0.00843
1971.02303	0.00836
1968.96344	0.00884
1966.90386	0.00927
1964.84427	0.00919
1962.78469	0.00870
1960.72510	0.00811
1958.66552	0.00766
1956.60593	0.00751
1954.54635	0.00792
1952.48676	0.00886
1950.42718	0.00962
1948.36759	0.00991
1946.30801	0.00988
1944.24842	0.00961
1942.18884	0.00947
1940.12925	0.00949
1938.06967	0.00931
1936.01008	0.00916
1933.95049	0.00928
1931.89091	0.00936
1929.83132	0.00919
1927.77174	0.00906
1925.71215	0.00935
1923.65257	0.00995
1921.59298	0.01043
1919.53340	0.01048
1917.47381	0.01023
1915.41423	0.01015
1913.35464	0.01018
1911.29506	0.01009
1909.23547	0.01006
1907.17589	0.01014
1905.11630	0.01023
1903.05672	0.01013
1900.99713	0.00976
1898.93755	0.00962
1896.87796	0.01001
1894.81838	0.01057
1892.75879	0.01080
1890.69921	0.01074
1888.63962	0.01056
1886.58004	0.01029
1884.52045	0.01005
1882.46086	0.00994
1880.40128	0.00996
1878.34169	0.01011
1876.28211	0.01029
1874.22252	0.01046
1872.16294	0.01048
1870.10335	0.01043
1868.04377	0.01042
1865.98418	0.01022
1863.92460	0.00993
1861.86501	0.00986
1859.80543	0.01004
1857.74584	0.01023
1855.68626	0.01019
1853.62667	0.01001
1851.56709	0.01016
1849.50750	0.01069
1847.44792	0.01119
1845.38833	0.01145
1843.32875	0.01148
1841.26916	0.01132
1839.20958	0.01114
1837.14999	0.01112
1835.09041	0.01125
1833.03082	0.01142
1830.97124	0.01147
1828.91165	0.01130
1826.85206	0.01109
1824.79248	0.01110
1822.73289	0.01129
1820.67331	0.01135
1818.61372	0.01127
1816.55414	0.01121
1814.49455	0.01128
1812.43497	0.01150
1810.37538	0.01179
1808.31580	0.01200
1806.25621	0.01209
1804.19663	0.01222
1802.13704	0.01251
1800.07746	0.01288
1798.01787	0.01319
1795.95829	0.01338
1793.89870	0.01340
1791.83912	0.01338
1789.77953	0.01338
1787.71995	0.01335
1785.66036	0.01333
1783.60078	0.01353
1781.54119	0.01395
1779.48161	0.01427
1777.42202	0.01430
1775.36243	0.01419
1773.30285	0.01412
1771.24326	0.01435
1769.18368	0.01484
1767.12409	0.01517
1765.06451	0.01523
1763.00492	0.01525
1760.94534	0.01541
1758.88575	0.01567
1756.82617	0.01601
1754.76658	0.01648
1752.70700	0.01712
1750.64741	0.01794
1748.58783	0.01866
1746.52824	0.01905
1744.46866	0.01932
1742.40907	0.01954
1740.34949	0.01964
1738.28990	0.01975
1736.23032	0.02004
1734.17073	0.02061
1732.11115	0.02138
1730.05156	0.02211
1727.99198	0.02277
1725.93239	0.02344
1723.87281	0.02433
1721.81322	0.02537
1719.75363	0.02675
1717.69405	0.02907
1715.63446	0.03225
1713.57488	0.03562
1711.51529	0.03954
1709.45571	0.04525
1707.39612	0.05459
1705.33654	0.06813
1703.27695	0.08249
1701.21737	0.09511
1699.15778	0.10466
1697.09820	0.10877
1695.03861	0.10950
1692.97903	0.11017
1690.91944	0.11200
1688.85986	0.11487
1686.80027	0.11851
1684.74069	0.12406
1682.68110	0.13120
1680.62152	0.13704
1678.56193	0.14187
1676.50235	0.14750
1674.44276	0.15431
1672.38318	0.16108
1670.32359	0.16838
1668.26401	0.17638
1666.20442	0.18315
1664.14483	0.18957
1662.08525	0.19723
1660.02566	0.20472
1657.96608	0.21059
1655.90649	0.21590
1653.84691	0.22348
1651.78732	0.23239
1649.72774	0.23790
1647.66815	0.24259
1645.60857	0.24882
1643.54898	0.25436
1641.48940	0.25886
1639.42981	0.26367
1637.37023	0.27063
1635.31064	0.28099
1633.25106	0.29123
1631.19147	0.29943
1629.13189	0.30817
1627.07230	0.31826
1625.01272	0.32814
1622.95313	0.33665
1620.89355	0.34174
1618.83396	0.34197
1616.77438	0.33732
1614.71479	0.32871
1612.65520	0.31757
1610.59562	0.30327
1608.53603	0.28535
1606.47645	0.26549
1604.41686	0.24547
1602.35728	0.22614
1600.29769	0.20871
1598.23811	0.19403
1596.17852	0.18148
1594.11894	0.17016
1592.05935	0.15990
1589.99977	0.15113
1587.94018	0.14430
1585.88060	0.13947
1583.82101	0.13645
1581.76143	0.13505
1579.70184	0.13510
1577.64226	0.13688
1575.58267	0.14048
1573.52309	0.14454
1571.46350	0.14901
1569.40392	0.15523
1567.34433	0.16219
1565.28475	0.16848
1563.22516	0.17399
1561.16558	0.17985
1559.10599	0.18907
1557.04640	0.19940
1554.98682	0.20627
1552.92723	0.21188
1550.86765	0.21809
1548.80806	0.22451
1546.74848	0.23045
1544.68889	0.23660
1542.62931	0.24428
1540.56972	0.25411
1538.51014	0.26358
1536.45055	0.26976
1534.39097	0.27555
1532.33138	0.28271
1530.27180	0.28904
1528.21221	0.29452
1526.15263	0.30018
1524.09304	0.30552
1522.03346	0.31103
1519.97387	0.31706
1517.91429	0.32267
1515.85470	0.32738
1513.79512	0.33015
1511.73553	0.33064
1509.67595	0.32921
1507.61636	0.32501
1505.55677	0.31811
1503.49719	0.31112
1501.43760	0.30395
1499.37802	0.29488
1497.31843	0.28338
1495.25885	0.27130
1493.19926	0.26053
1491.13968	0.24925
1489.08009	0.23575
1487.02051	0.22243
1484.96092	0.21131
1482.90134	0.20169
1480.84175	0.19270
1478.78217	0.18477
1476.72258	0.17814
1474.66300	0.17250
1472.60341	0.16771
1470.54383	0.16418
1468.48424	0.16201
1466.42466	0.16074
1464.36507	0.16027
1462.30549	0.16059
1460.24590	0.16200
1458.18632	0.16602
1456.12673	0.17292
1454.06715	0.17941
1452.00756	0.18451
1449.94797	0.18898
1447.88839	0.19253
1445.82880	0.19436
1443.76922	0.19443
1441.70963	0.19336
1439.65005	0.19119
1437.59046	0.18709
1435.53088	0.18094
1433.47129	0.17429
1431.41171	0.16779
1429.35212	0.16168
1427.29254	0.15697
1425.23295	0.15401
1423.17337	0.15243
1421.11378	0.15202
1419.05420	0.15280
1416.99461	0.15428
1414.93503	0.15565
1412.87544	0.15687
1410.81586	0.15803
1408.75627	0.15873
1406.69669	0.15866
1404.63710	0.15771
1402.57752	0.15598
1400.51793	0.15379
1398.45834	0.15155
1396.39876	0.14960
1394.33917	0.14803
1392.27959	0.14690
1390.22000	0.14613
1388.16042	0.14559
1386.10083	0.14506
1384.04125	0.14435
1381.98166	0.14354
1379.92208	0.14279
1377.86249	0.14218
1375.80291	0.14172
1373.74332	0.14136
1371.68374	0.14087
1369.62415	0.13986
1367.56457	0.13797
1365.50498	0.13509
1363.44540	0.13124
1361.38581	0.12691
1359.32623	0.12302
1357.26664	0.11996
1355.20706	0.11767
1353.14747	0.11611
1351.08789	0.11523
1349.02830	0.11498
1346.96872	0.11525
1344.90913	0.11593
1342.84954	0.11692
1340.78996	0.11813
1338.73037	0.11927
1336.67079	0.11985
1334.61120	0.11976
1332.55162	0.11904
1330.49203	0.11770
1328.43245	0.11584
1326.37286	0.11370
1324.31328	0.11158
1322.25369	0.10967
1320.19411	0.10807
1318.13452	0.10684
1316.07494	0.10603
1314.01535	0.10563
1311.95577	0.10545
1309.89618	0.10528
1307.83660	0.10504
1305.77701	0.10475
1303.71743	0.10447
1301.65784	0.10421
1299.59826	0.10398
1297.53867	0.10380
1295.47909	0.10371
1293.41950	0.10384
1291.35991	0.10428
1289.30033	0.10496
1287.24074	0.10581
1285.18116	0.10689
1283.12157	0.10832
1281.06199	0.11026
1279.00240	0.11277
1276.94282	0.11594
1274.88323	0.11983
1272.82365	0.12437
1270.76406	0.12917
1268.70448	0.13352
1266.64489	0.13698
1264.58531	0.13948
1262.52572	0.14105
1260.46614	0.14194
1258.40655	0.14250
1256.34697	0.14301
1254.28738	0.14379
1252.22780	0.14505
1250.16821	0.14678
1248.10863	0.14893
1246.04904	0.15143
1243.98946	0.15432
1241.92987	0.15760
1239.87029	0.16113
1237.81070	0.16478
1235.75111	0.16845
1233.69153	0.17174
1231.63194	0.17413
1229.57236	0.17529
1227.51277	0.17505
1225.45319	0.17344
1223.39360	0.17085
1221.33402	0.16759
1219.27443	0.16360
1217.21485	0.15874
1215.15526	0.15321
1213.09568	0.14719
1211.03609	0.14074
1208.97651	0.13411
1206.91692	0.12762
1204.85734	0.12133
1202.79775	0.11530
1200.73817	0.10975
1198.67858	0.10484
1196.61900	0.10063
1194.55941	0.09711
1192.49983	0.09424
1190.44024	0.09194
1188.38066	0.09005
1186.32107	0.08868
1184.26149	0.08801
1182.20190	0.08803
1180.14231	0.08892
1178.08273	0.09105
1176.02314	0.09431
1173.96356	0.09803
1171.90397	0.10145
1169.84439	0.10406
1167.78480	0.10573
1165.72522	0.10657
1163.66563	0.10660
1161.60605	0.10580
1159.54646	0.10429
1157.48688	0.10220
1155.42729	0.09957
1153.36771	0.09642
1151.30812	0.09285
1149.24854	0.08918
1147.18895	0.08569
1145.12937	0.08243
1143.06978	0.07950
1141.01020	0.07693
1138.95061	0.07471
1136.89103	0.07286
1134.83144	0.07130
1132.77186	0.06998
1130.71227	0.06893
1128.65268	0.06807
1126.59310	0.06722
1124.53351	0.06644
1122.47393	0.06587
1120.41434	0.06552
1118.35476	0.06522
1116.29517	0.06484
1114.23559	0.06447
1112.17600	0.06427
1110.11642	0.06428
1108.05683	0.06457
1105.99725	0.06505
1103.93766	0.06535
1101.87808	0.06526
1099.81849	0.06484
1097.75891	0.06426
1095.69932	0.06393
1093.63974	0.06424
1091.58015	0.06526
1089.52057	0.06685
1087.46098	0.06886
1085.40140	0.07129
1083.34181	0.07408
1081.28223	0.07708
1079.22264	0.08011
1077.16306	0.08291
1075.10347	0.08536
1073.04388	0.08752
1070.98430	0.08929
1068.92471	0.09040
1066.86513	0.09085
1064.80554	0.09084
1062.74596	0.09048
1060.68637	0.08980
1058.62679	0.08887
1056.56720	0.08772
1054.50762	0.08635
1052.44803	0.08487
1050.38845	0.08350
1048.32886	0.08237
1046.26928	0.08130
1044.20969	0.08022
1042.15011	0.07906
1040.09052	0.07762
1038.03094	0.07587
1035.97135	0.07398
1033.91177	0.07209
1031.85218	0.07025
1029.79260	0.06851
1027.73301	0.06686
1025.67343	0.06548
1023.61384	0.06468
1021.55425	0.06468
1019.49467	0.06543
1017.43508	0.06665
1015.37550	0.06788
1013.31591	0.06858
1011.25633	0.06851
1009.19674	0.06816
1007.13716	0.06813
1005.07757	0.06856
1003.01799	0.06926
1000.95840	0.06981
998.89882	0.06976
996.83923	0.06896
994.77965	0.06735
992.72006	0.06490
990.66048	0.06186
988.60089	0.05888
986.54131	0.05683
984.48172	0.05624
982.42214	0.05701
980.36255	0.05851
978.30297	0.05992
976.24338	0.06067
974.18380	0.06045
972.12421	0.05918
970.06463	0.05724
968.00504	0.05515
965.94545	0.05332
963.88587	0.05189
961.82628	0.05077
959.76670	0.04986
957.70711	0.04903
955.64753	0.04822
953.58794	0.04752
951.52836	0.04693
949.46877	0.04640
947.40919	0.04590
945.34960	0.04546
943.29002	0.04505
941.23043	0.04464
939.17085	0.04426
937.11126	0.04407
935.05168	0.04410
932.99209	0.04416
930.93251	0.04416
928.87292	0.04404
926.81334	0.04357
924.75375	0.04269
922.69417	0.04162
920.63458	0.04052
918.57500	0.03937
916.51541	0.03821
914.45582	0.03729
912.39624	0.03663
910.33665	0.03602
908.27707	0.03547
906.21748	0.03514
904.15790	0.03498
902.09831	0.03487
900.03873	0.03481
897.97914	0.03484
895.91956	0.03482
893.85997	0.03466
891.80039	0.03443
889.74080	0.03425
887.68122	0.03401
885.62163	0.03375
883.56205	0.03375
881.50246	0.03396
879.44288	0.03408
877.38329	0.03405
875.32371	0.03395
873.26412	0.03374
871.20454	0.03356
869.14495	0.03367
867.08537	0.03412
865.02578	0.03478
862.96620	0.03555
860.90661	0.03640
858.84702	0.03749
856.78744	0.03882
854.72785	0.03997
852.66827	0.04072
850.60868	0.04109
848.54910	0.04099
846.48951	0.04060
844.42993	0.04035
842.37034	0.04047
840.31076	0.04107
838.25117	0.04204
836.19159	0.04300
834.13200	0.04384
832.07242	0.04472
830.01283	0.04544
827.95325	0.04578
825.89366	0.04584
823.83408	0.04569
821.77449	0.04543
819.71491	0.04529
817.65532	0.04538
815.59574	0.04563
813.53615	0.04591
811.47657	0.04608
809.41698	0.04619
807.35740	0.04646
805.29781	0.04676
803.23822	0.04693
801.17864	0.04702
799.11905	0.04700
797.05947	0.04710
794.99988	0.04764
792.94030	0.04840
790.88071	0.04912
788.82113	0.04993
786.76154	0.05089
784.70196	0.05182
782.64237	0.05270
780.58279	0.05366
778.52320	0.05475
776.46362	0.05587
774.40403	0.05698
772.34445	0.05817
770.28486	0.05934
768.22528	0.06031
766.16569	0.06118
764.10611	0.06202
762.04652	0.06271
759.98694	0.06336
757.92735	0.06412
755.86777	0.06496
753.80818	0.06580
751.74859	0.06667
749.68901	0.06778
747.62942	0.06924
745.56984	0.07082
743.51025	0.07246
741.45067	0.07416
739.39108	0.07578
737.33150	0.07732
735.27191	0.07893
733.21233	0.08069
731.15274	0.08256
729.09316	0.08445
727.03357	0.08631
724.97399	0.08807
722.91440	0.08951
720.85482	0.09081
718.79523	0.09222
716.73565	0.09355
714.67606	0.09477
712.61648	0.09613
710.55689	0.09767
708.49731	0.09919
706.43772	0.10054
704.37814	0.10186
702.31855	0.10323
700.25897	0.10444
698.19938	0.10547
696.13979	0.10635
694.08021	0.10719
692.02062	0.10805
689.96104	0.10869
687.90145	0.10894
685.84187	0.10903
683.78228	0.10924
681.72270	0.10952
679.66311	0.10972
677.60353	0.10985
675.54394	0.11004
673.48436	0.11022
671.42477	0.10979
669.36519	0.10886
667.30560	0.10910
665.24602	0.10986
663.18643	0.11048
661.12685	0.11078
659.06726	0.11111
657.00768	0.11145
654.94809	0.11181
652.88851	0.11222
650.82892	0.11263
648.76934	0.11309
646.70975	0.11356
644.65016	0.11390
642.59058	0.11420
640.53099	0.11449
638.47141	0.11468
636.41182	0.11479
634.35224	0.11485
632.29265	0.11489
630.23307	0.11491
628.17348	0.11490
626.11390	0.11493
624.05431	0.11516
621.99473	0.11541
619.93514	0.11552
617.87556	0.11555
615.81597	0.11553
613.75639	0.11562
611.69680	0.11591
609.63722	0.11609
607.57763	0.11572
605.51805	0.11492
603.45846	0.11397
601.39888	0.11299
599.33929	0.11210
597.27971	0.11120
595.22012	0.11024
593.16054	0.10942
591.10095	0.10880
589.04136	0.10824
586.98178	0.10778
584.92219	0.10748
582.86261	0.10727
580.80302	0.10716
578.74344	0.10724
576.68385	0.10739
574.62427	0.10736
572.56468	0.10733
570.50510	0.10758
568.44551	0.10811
566.38593	0.10885
564.32634	0.10983
562.26676	0.11119
560.20717	0.11288
558.14759	0.11482
556.08800	0.11700
554.02842	0.11921
551.96883	0.12099
549.90925	0.12222
547.84966	0.12299
545.79008	0.12329
543.73049	0.12313
541.67091	0.12247
539.61132	0.12148
537.55173	0.12049
535.49215	0.11941
533.43256	0.11828
531.37298	0.11731
529.31339	0.11647
527.25381	0.11568
525.19422	0.11486
523.13464	0.11395
521.07505	0.11312
519.01547	0.11249
516.95588	0.11202
514.89630	0.11164
512.83671	0.11114
510.77713	0.11048
508.71754	0.10975
506.65796	0.10905
504.59837	0.10832
502.53879	0.10751
500.47920	0.10680
498.41962	0.10632
496.36003	0.10590
494.30045	0.10541
492.24086	0.10495
490.18128	0.10457
488.12169	0.10418
486.06211	0.10381
484.00252	0.10331
481.94293	0.10256
479.88335	0.10169
477.82376	0.10082
475.76418	0.10006
473.70459	0.09949
471.64501	0.09893
469.58542	0.09801
467.52584	0.09696
465.46625	0.09642
463.40667	0.09626
461.34708	0.09572
459.28750	0.09477
457.22791	0.09389
455.16833	0.09337
453.10874	0.09316
451.04916	0.09295
448.98957	0.09260
446.92999	0.09218
444.87040	0.09160
442.81082	0.09076
440.75123	0.09003
438.69165	0.08977
436.63206	0.08993
434.57248	0.09012
432.51289	0.09046
430.45330	0.09165
428.39372	0.09347
426.33413	0.09468
424.27455	0.09467
422.21496	0.09398
420.15538	0.09317
418.09579	0.09199
416.03621	0.09052
413.97662	0.08953
411.91704	0.08915
409.85745	0.08877
407.79787	0.08796
405.73828	0.08708
403.67870	0.08652
401.61911	0.08582
399.55953	0.08460
