3997.65486	0.00987
3995.59527	0.01021
3993.53569	0.01024
3991.47610	0.01025
3989.41652	0.01039
3987.35693	0.01066
3985.29735	0.01106
3983.23776	0.01093
3981.17817	0.01004
3979.11859	0.00928
3977.05900	0.00928
3974.99942	0.00956
3972.93983	0.00984
3970.88025	0.01051
3968.82066	0.01119
3966.76108	0.01117
3964.70149	0.01093
3962.64191	0.01100
3960.58232	0.01087
3958.52274	0.01049
3956.46315	0.01028
3954.40357	0.01001
3952.34398	0.00958
3950.28440	0.00935
3948.22481	0.00957
3946.16523	0.01001
3944.10564	0.01034
3942.04606	0.01050
3939.98647	0.01047
3937.92689	0.01029
3935.86730	0.01008
3933.80772	0.00991
3931.74813	0.00975
3929.68855	0.00947
3927.62896	0.00934
3925.56937	0.00960
3923.50979	0.00989
3921.45020	0.00970
3919.39062	0.00906
3917.33103	0.00849
3915.27145	0.00847
3913.21186	0.00901
3911.15228	0.00973
3909.09269	0.01005
3907.03311	0.00985
3904.97352	0.00988
3902.91394	0.01035
3900.85435	0.01061
3898.79477	0.01059
3896.73518	0.01044
3894.67560	0.01015
3892.61601	0.00992
3890.55643	0.00978
3888.49684	0.00936
3886.43726	0.00868
3884.37767	0.00821
3882.31809	0.00828
3880.25850	0.00904
3878.19892	0.01009
3876.13933	0.01068
3874.07974	0.01074
3872.02016	0.01064
3869.96057	0.01041
3867.90099	0.00973
3865.84140	0.00880
3863.78182	0.00861
3861.72223	0.00929
3859.66265	0.00967
3857.60306	0.00915
3855.54348	0.00798
3853.48389	0.00740
3851.42431	0.00841
3849.36472	0.00933
3847.30514	0.00912
3845.24555	0.00848
3843.18597	0.00845
3841.12638	0.00907
3839.06680	0.00912
3837.00721	0.00816
3834.94763	0.00727
3832.88804	0.00695
3830.82846	0.00691
3828.76887	0.00693
3826.70929	0.00723
3824.64970	0.00807
3822.59012	0.00886
3820.53053	0.00902
3818.47094	0.00875
3816.41136	0.00853
3814.35177	0.00877
3812.29219	0.00912
3810.23260	0.00912
3808.17302	0.00888
3806.11343	0.00849
3804.05385	0.00803
3801.99426	0.00774
3799.93468	0.00749
3797.87509	0.00713
3795.81551	0.00690
3793.75592	0.00730
3791.69634	0.00816
3789.63675	0.00852
3787.57717	0.00802
3785.51758	0.00758
3783.45800	0.00775
3781.39841	0.00805
3779.33883	0.00838
3777.27924	0.00885
3775.21966	0.00888
3773.16007	0.00861
3771.10049	0.00852
3769.04090	0.00843
3766.98132	0.00832
3764.92173	0.00857
3762.86214	0.00896
3760.80256	0.00894
3758.74297	0.00845
3756.68339	0.00817
3754.62380	0.00862
3752.56422	0.00986
3750.50463	0.01122
3748.44505	0.01144
3746.38546	0.01070
3744.32588	0.01020
3742.26629	0.01015
3740.20671	0.01007
3738.14712	0.00960
3736.08754	0.00924
3734.02795	0.00955
3731.96837	0.00995
3729.90878	0.01002
3727.84920	0.01026
3725.78961	0.01074
3723.73003	0.01076
3721.67044	0.01004
3719.61086	0.00918
3717.55127	0.00878
3715.49169	0.00899
3713.43210	0.00980
3711.37251	0.01126
3709.31293	0.01225
3707.25334	0.01193
3705.19376	0.01064
3703.13417	0.00983
3701.07459	0.01023
3699.01500	0.01082
3696.95542	0.01061
3694.89583	0.00996
3692.83625	0.00950
3690.77666	0.00931
3688.71708	0.00930
3686.65749	0.00973
3684.59791	0.01039
3682.53832	0.01073
3680.47874	0.01077
3678.41915	0.01072
3676.35957	0.01114
3674.29998	0.01196
3672.24040	0.01221
3670.18081	0.01178
3668.12123	0.01174
3666.06164	0.01239
3664.00206	0.01306
3661.94247	0.01350
3659.88289	0.01417
3657.82330	0.01503
3655.76371	0.01570
3653.70413	0.01610
3651.64454	0.01628
3649.58496	0.01648
3647.52537	0.01716
3645.46579	0.01787
3643.40620	0.01857
3641.34662	0.01962
3639.28703	0.02070
3637.22745	0.02128
3635.16786	0.02144
3633.10828	0.02148
3631.04869	0.02168
3628.98911	0.02263
3626.92952	0.02448
3624.86994	0.02614
3622.81035	0.02689
3620.75077	0.02700
3618.69118	0.02715
3616.63160	0.02750
3614.57201	0.02799
3612.51243	0.02858
3610.45284	0.02909
3608.39326	0.02953
3606.33367	0.03018
3604.27408	0.03122
3602.21450	0.03204
3600.15491	0.03251
3598.09533	0.03314
3596.03574	0.03406
3593.97616	0.03500
3591.91657	0.03561
3589.85699	0.03620
3587.79740	0.03761
3585.73782	0.03878
3583.67823	0.03912
3581.61865	0.03962
3579.55906	0.04045
3577.49948	0.04134
3575.43989	0.04247
3573.38031	0.04364
3571.32072	0.04443
3569.26114	0.04507
3567.20155	0.04600
3565.14197	0.04693
3563.08238	0.04751
3561.02280	0.04801
3558.96321	0.04866
3556.90363	0.04939
3554.84404	0.04980
3552.78446	0.05001
3550.72487	0.05103
3548.66528	0.05291
3546.60570	0.05448
3544.54611	0.05523
3542.48653	0.05552
3540.42694	0.05573
3538.36736	0.05620
3536.30777	0.05719
3534.24819	0.05844
3532.18860	0.05915
3530.12902	0.05915
3528.06943	0.05922
3526.00985	0.05998
3523.95026	0.06120
3521.89068	0.06234
3519.83109	0.06314
3517.77151	0.06379
3515.71192	0.06469
3513.65234	0.06565
3511.59275	0.06617
3509.53317	0.06635
3507.47358	0.06667
3505.41400	0.06727
3503.35441	0.06803
3501.29483	0.06861
3499.23524	0.06898
3497.17565	0.06945
3495.11607	0.06999
3493.05648	0.07046
3490.99690	0.07070
3488.93731	0.07079
3486.87773	0.07133
3484.81814	0.07234
3482.75856	0.07303
3480.69897	0.07350
3478.63939	0.07425
3476.57980	0.07492
3474.52022	0.07512
3472.46063	0.07504
3470.40105	0.07518
3468.34146	0.07570
3466.28188	0.07608
3464.22229	0.07606
3462.16271	0.07622
3460.10312	0.07695
3458.04354	0.07797
3455.98395	0.07882
3453.92437	0.07933
3451.86478	0.07955
3449.80520	0.07962
3447.74561	0.07997
3445.68603	0.08055
3443.62644	0.08096
3441.56685	0.08152
3439.50727	0.08225
3437.44768	0.08268
3435.38810	0.08286
3433.32851	0.08307
3431.26893	0.08353
3429.20934	0.08435
3427.14976	0.08525
3425.09017	0.08602
3423.03059	0.08671
3420.97100	0.08739
3418.91142	0.08801
3416.85183	0.08859
3414.79225	0.08955
3412.73266	0.09074
3410.67308	0.09156
3408.61349	0.09214
3406.55391	0.09270
3404.49432	0.09333
3402.43474	0.09437
3400.37515	0.09569
3398.31557	0.09671
3396.25598	0.09738
3394.19640	0.09820
3392.13681	0.09901
3390.07723	0.09969
3388.01764	0.10038
3385.95805	0.10122
3383.89847	0.10246
3381.83888	0.10390
3379.77930	0.10493
3377.71971	0.10546
3375.66013	0.10597
3373.60054	0.10687
3371.54096	0.10811
3369.48137	0.10940
3367.42179	0.11079
3365.36220	0.11231
3363.30262	0.11364
3361.24303	0.11490
3359.18345	0.11625
3357.12386	0.11757
3355.06428	0.11891
3353.00469	0.12068
3350.94511	0.12294
3348.88552	0.12500
3346.82594	0.12672
3344.76635	0.12864
3342.70677	0.13094
3340.64718	0.13320
3338.58760	0.13530
3336.52801	0.13758
3334.46842	0.14031
3332.40884	0.14368
3330.34925	0.14725
3328.28967	0.15020
3326.23008	0.15320
3324.17050	0.15725
3322.11091	0.16167
3320.05133	0.16560
3317.99174	0.16928
3315.93216	0.17295
3313.87257	0.17645
3311.81299	0.18018
3309.75340	0.18471
3307.69382	0.18966
3305.63423	0.19425
3303.57465	0.19866
3301.51506	0.20351
3299.45548	0.20862
3297.39589	0.21350
3295.33631	0.21820
3293.27672	0.22283
3291.21714	0.22706
3289.15755	0.23070
3287.09797	0.23407
3285.03838	0.23724
3282.97880	0.23967
3280.91921	0.24109
3278.85962	0.24159
3276.80004	0.24122
3274.74045	0.24027
3272.68087	0.23879
3270.62128	0.23640
3268.56170	0.23322
3266.50211	0.22947
3264.44253	0.22518
3262.38294	0.22072
3260.32336	0.21604
3258.26377	0.21122
3256.20419	0.20682
3254.14460	0.20264
3252.08502	0.19844
3250.02543	0.19463
3247.96585	0.19109
3245.90626	0.18727
3243.84668	0.18317
3241.78709	0.17930
3239.72751	0.17574
3237.66792	0.17247
3235.60834	0.16952
3233.54875	0.16656
3231.48917	0.16341
3229.42958	0.16024
3227.36999	0.15713
3225.31041	0.15409
3223.25082	0.15127
3221.19124	0.14865
3219.13165	0.14604
3217.07207	0.14347
3215.01248	0.14105
3212.95290	0.13863
3210.89331	0.13635
3208.83373	0.13451
3206.77414	0.13254
3204.71456	0.12984
3202.65497	0.12715
3200.59539	0.12496
3198.53580	0.12299
3196.47622	0.12096
3194.41663	0.11836
3192.35705	0.11521
3190.29746	0.11263
3188.23788	0.11098
3186.17829	0.10913
3184.11871	0.10668
3182.05912	0.10447
3179.99954	0.10268
3177.93995	0.10062
3175.88037	0.09840
3173.82078	0.09642
3171.76119	0.09464
3169.70161	0.09311
3167.64202	0.09161
3165.58244	0.08992
3163.52285	0.08822
3161.46327	0.08670
3159.40368	0.08527
3157.34410	0.08384
3155.28451	0.08236
3153.22493	0.08083
3151.16534	0.07953
3149.10576	0.07851
3147.04617	0.07742
3144.98659	0.07626
3142.92700	0.07542
3140.86742	0.07496
3138.80783	0.07452
3136.74825	0.07376
3134.68866	0.07261
3132.62908	0.07164
3130.56949	0.07153
3128.50991	0.07192
3126.45032	0.07203
3124.39074	0.07177
3122.33115	0.07157
3120.27156	0.07170
3118.21198	0.07206
3116.15239	0.07240
3114.09281	0.07257
3112.03322	0.07275
3109.97364	0.07313
3107.91405	0.07372
3105.85447	0.07433
3103.79488	0.07480
3101.73530	0.07521
3099.67571	0.07559
3097.61613	0.07612
3095.55654	0.07708
3093.49696	0.07812
3091.43737	0.07884
3089.37779	0.07936
3087.31820	0.07982
3085.25862	0.08018
3083.19903	0.08058
3081.13945	0.08109
3079.07986	0.08140
3077.02028	0.08134
3074.96069	0.08106
3072.90111	0.08066
3070.84152	0.08025
3068.78194	0.07994
3066.72235	0.07931
3064.66276	0.07813
3062.60318	0.07723
3060.54359	0.07669
3058.48401	0.07583
3056.42442	0.07461
3054.36484	0.07309
3052.30525	0.07108
3050.24567	0.06881
3048.18608	0.06700
3046.12650	0.06602
3044.06691	0.06525
3042.00733	0.06376
3039.94774	0.06176
3037.88816	0.06030
3035.82857	0.05944
3033.76899	0.05842
3031.70940	0.05712
3029.64982	0.05586
3027.59023	0.05474
3025.53065	0.05388
3023.47106	0.05329
3021.41148	0.05284
3019.35189	0.05235
3017.29231	0.05180
3015.23272	0.05144
3013.17313	0.05130
3011.11355	0.05081
3009.05396	0.04996
3006.99438	0.04952
3004.93479	0.04969
3002.87521	0.05017
3000.81562	0.05099
2998.75604	0.05219
2996.69645	0.05338
2994.63687	0.05432
2992.57728	0.05530
2990.51770	0.05627
2988.45811	0.05721
2986.39853	0.05817
2984.33894	0.05908
2982.27936	0.05989
2980.21977	0.06033
2978.16019	0.06024
2976.10060	0.06004
2974.04102	0.06016
2971.98143	0.06045
2969.92185	0.06066
2967.86226	0.06071
2965.80268	0.06057
2963.74309	0.06004
2961.68351	0.05911
2959.62392	0.05830
2957.56433	0.05768
2955.50475	0.05712
2953.44516	0.05705
2951.38558	0.05747
2949.32599	0.05805
2947.26641	0.05903
2945.20682	0.06038
2943.14724	0.06183
2941.08765	0.06328
2939.02807	0.06466
2936.96848	0.06571
2934.90890	0.06653
2932.84931	0.06742
2930.78973	0.06776
2928.73014	0.06707
2926.67056	0.06598
2924.61097	0.06493
2922.55139	0.06370
2920.49180	0.06225
2918.43222	0.06059
2916.37263	0.05888
2914.31305	0.05700
2912.25346	0.05472
2910.19388	0.05250
2908.13429	0.05079
2906.07471	0.04972
2904.01512	0.04913
2901.95553	0.04848
2899.89595	0.04737
2897.83636	0.04605
2895.77678	0.04520
2893.71719	0.04484
2891.65761	0.04459
2889.59802	0.04430
2887.53844	0.04394
2885.47885	0.04384
2883.41927	0.04416
2881.35968	0.04465
2879.30010	0.04508
2877.24051	0.04527
2875.18093	0.04527
2873.12134	0.04491
2871.06176	0.04400
2869.00217	0.04284
2866.94259	0.04170
2864.88300	0.04070
2862.82342	0.03994
2860.76383	0.03939
2858.70425	0.03895
2856.64466	0.03849
2854.58508	0.03813
2852.52549	0.03796
2850.46590	0.03763
2848.40632	0.03661
2846.34673	0.03520
2844.28715	0.03395
2842.22756	0.03293
2840.16798	0.03226
2838.10839	0.03179
2836.04881	0.03128
2833.98922	0.03094
2831.92964	0.03092
2829.87005	0.03087
2827.81047	0.03057
2825.75088	0.03028
2823.69130	0.03020
2821.63171	0.03004
2819.57213	0.02971
2817.51254	0.02935
2815.45296	0.02907
2813.39337	0.02890
2811.33379	0.02896
2809.27420	0.02909
2807.21462	0.02880
2805.15503	0.02828
2803.09545	0.02800
2801.03586	0.02785
2798.97628	0.02772
2796.91669	0.02764
2794.85710	0.02742
2792.79752	0.02708
2790.73793	0.02701
2788.67835	0.02711
2786.61876	0.02685
2784.55918	0.02618
2782.49959	0.02556
2780.44001	0.02515
2778.38042	0.02488
2776.32084	0.02482
2774.26125	0.02489
2772.20167	0.02471
2770.14208	0.02437
2768.08250	0.02396
2766.02291	0.02341
2763.96333	0.02298
2761.90374	0.02282
2759.84416	0.02284
2757.78457	0.02285
2755.72499	0.02263
2753.66540	0.02222
2751.60582	0.02188
2749.54623	0.02171
2747.48665	0.02159
2745.42706	0.02126
2743.36747	0.02074
2741.30789	0.02029
2739.24830	0.02001
2737.18872	0.01988
2735.12913	0.01982
2733.06955	0.01982
2731.00996	0.01997
2728.95038	0.02009
2726.89079	0.01996
2724.83121	0.01955
2722.77162	0.01902
2720.71204	0.01869
2718.65245	0.01864
2716.59287	0.01864
2714.53328	0.01853
2712.47370	0.01823
2710.41411	0.01788
2708.35453	0.01774
2706.29494	0.01771
2704.23536	0.01768
2702.17577	0.01769
2700.11619	0.01759
2698.05660	0.01735
2695.99702	0.01719
2693.93743	0.01709
2691.87785	0.01688
2689.81826	0.01675
2687.75867	0.01673
2685.69909	0.01668
2683.63950	0.01665
2681.57992	0.01664
2679.52033	0.01675
2677.46075	0.01689
2675.40116	0.01677
2673.34158	0.01634
2671.28199	0.01598
2669.22241	0.01585
2667.16282	0.01578
2665.10324	0.01573
2663.04365	0.01573
2660.98407	0.01577
2658.92448	0.01595
2656.86490	0.01613
2654.80531	0.01606
2652.74573	0.01582
2650.68614	0.01568
2648.62656	0.01564
2646.56697	0.01568
2644.50739	0.01576
2642.44780	0.01577
2640.38822	0.01574
2638.32863	0.01571
2636.26904	0.01569
2634.20946	0.01554
2632.14987	0.01514
2630.09029	0.01487
2628.03070	0.01503
2625.97112	0.01534
2623.91153	0.01529
2621.85195	0.01496
2619.79236	0.01503
2617.73278	0.01538
2615.67319	0.01511
2613.61361	0.01441
2611.55402	0.01422
2609.49444	0.01461
2607.43485	0.01497
2605.37527	0.01493
2603.31568	0.01458
2601.25610	0.01426
2599.19651	0.01413
2597.13693	0.01395
2595.07734	0.01346
2593.01776	0.01290
2590.95817	0.01278
2588.89859	0.01293
2586.83900	0.01287
2584.77942	0.01287
2582.71983	0.01292
2580.66024	0.01272
2578.60066	0.01255
2576.54107	0.01241
2574.48149	0.01185
2572.42190	0.01129
2570.36232	0.01129
2568.30273	0.01146
2566.24315	0.01144
2564.18356	0.01147
2562.12398	0.01165
2560.06439	0.01163
2558.00481	0.01132
2555.94522	0.01108
2553.88564	0.01086
2551.82605	0.01062
2549.76647	0.01073
2547.70688	0.01111
2545.64730	0.01116
2543.58771	0.01083
2541.52813	0.01067
2539.46854	0.01061
2537.40896	0.01034
2535.34937	0.01015
2533.28979	0.01011
2531.23020	0.01003
2529.17062	0.01003
2527.11103	0.01013
2525.05144	0.01040
2522.99186	0.01081
2520.93227	0.01102
2518.87269	0.01076
2516.81310	0.01030
2514.75352	0.01001
2512.69393	0.00981
2510.63435	0.00989
2508.57476	0.01023
2506.51518	0.01047
2504.45559	0.01067
2502.39601	0.01054
2500.33642	0.00993
2498.27684	0.00957
2496.21725	0.00970
2494.15767	0.00984
2492.09808	0.00979
2490.03850	0.00957
2487.97891	0.00945
2485.91933	0.00965
2483.85974	0.00995
2481.80016	0.01012
2479.74057	0.00999
2477.68099	0.00983
2475.62140	0.00989
2473.56181	0.00977
2471.50223	0.00958
2469.44264	0.00971
2467.38306	0.00980
2465.32347	0.00973
2463.26389	0.00965
2461.20430	0.00949
2459.14472	0.00928
2457.08513	0.00927
2455.02555	0.00960
2452.96596	0.00980
2450.90638	0.00953
2448.84679	0.00917
2446.78721	0.00893
2444.72762	0.00871
2442.66804	0.00891
2440.60845	0.00940
2438.54887	0.00956
2436.48928	0.00962
2434.42970	0.00942
2432.37011	0.00874
2430.31053	0.00823
2428.25094	0.00831
2426.19136	0.00867
2424.13177	0.00889
2422.07219	0.00899
2420.01260	0.00900
2417.95301	0.00884
2415.89343	0.00861
2413.83384	0.00832
2411.77426	0.00802
2409.71467	0.00795
2407.65509	0.00818
2405.59550	0.00841
2403.53592	0.00832
2401.47633	0.00802
2399.41675	0.00700
2397.35716	0.00698
2395.29758	0.00729
2393.23799	0.00760
2391.17841	0.00815
2389.11882	0.00892
2387.05924	0.00972
2384.99965	0.01058
2382.94007	0.01154
2380.88048	0.01231
2378.82090	0.01264
2376.76131	0.01323
2374.70173	0.01196
2372.64214	0.01186
2370.58256	0.01389
2368.52297	0.01438
2366.46338	0.01490
2364.40380	0.01326
2362.34421	0.01190
2360.28463	0.01446
2358.22504	0.01393
2356.16546	0.01445
2354.10587	0.01504
2352.04629	0.01527
2349.98670	0.01835
2347.92712	0.01582
2345.86753	0.01480
2343.80795	0.01860
2341.74836	0.01435
2339.68878	0.00821
2337.62919	0.00628
2335.56961	0.01186
2333.51002	0.02313
2331.45044	0.02630
2329.39085	0.02357
2327.33127	0.01445
2325.27168	0.00661
2323.21210	0.00199
2321.15251	0.00099
2319.09293	0.00265
2317.03334	0.00390
2314.97376	0.00609
2312.91417	0.00646
2310.85458	0.00701
2308.79500	0.00814
2306.73541	0.00876
2304.67583	0.00951
2302.61624	0.00963
2300.55666	0.00989
2298.49707	0.01045
2296.43749	0.01118
2294.37790	0.01108
2292.31832	0.01084
2290.25873	0.01044
2288.19915	0.00986
2286.13956	0.00917
2284.07998	0.00885
2282.02039	0.00860
2279.96081	0.00826
2277.90122	0.00806
2275.84164	0.00800
2273.78205	0.00801
2271.72247	0.00794
2269.66288	0.00806
2267.60330	0.00817
2265.54371	0.00841
2263.48413	0.00873
2261.42454	0.00882
2259.36495	0.00858
2257.30537	0.00843
2255.24578	0.00845
2253.18620	0.00856
2251.12661	0.00851
2249.06703	0.00812
2247.00744	0.00840
2244.94786	0.00806
2242.88827	0.00715
2240.82869	0.00648
2238.76910	0.00632
2236.70952	0.00662
2234.64993	0.00723
2232.59035	0.00787
2230.53076	0.00820
2228.47118	0.00782
2226.41159	0.00715
2224.35201	0.00709
2222.29242	0.00703
2220.23284	0.00674
2218.17325	0.00708
2216.11367	0.00757
2214.05408	0.00742
2211.99450	0.00680
2209.93491	0.00665
2207.87533	0.00704
2205.81574	0.00737
2203.75615	0.00756
2201.69657	0.00712
2199.63698	0.00649
2197.57740	0.00653
2195.51781	0.00665
2193.45823	0.00681
2191.39864	0.00762
2189.33906	0.00826
2187.27947	0.00789
2185.21989	0.00741
2183.16030	0.00757
2181.10072	0.00798
2179.04113	0.00781
2176.98155	0.00716
2174.92196	0.00692
2172.86238	0.00698
2170.80279	0.00685
2168.74321	0.00693
2166.68362	0.00757
2164.62404	0.00835
2162.56445	0.00851
2160.50487	0.00740
2158.44528	0.00551
2156.38570	0.00388
2154.32611	0.00314
2152.26652	0.00408
2150.20694	0.00571
2148.14735	0.00622
2146.08777	0.00593
2144.02818	0.00599
2141.96860	0.00639
2139.90901	0.00675
2137.84943	0.00636
2135.78984	0.00522
2133.73026	0.00474
2131.67067	0.00515
2129.61109	0.00592
2127.55150	0.00684
2125.49192	0.00735
2123.43233	0.00719
2121.37275	0.00689
2119.31316	0.00720
2117.25358	0.00790
2115.19399	0.00844
2113.13441	0.00865
2111.07482	0.00843
2109.01524	0.00812
2106.95565	0.00770
2104.89607	0.00725
2102.83648	0.00771
2100.77690	0.00855
2098.71731	0.00850
2096.65772	0.00764
2094.59814	0.00677
2092.53855	0.00675
2090.47897	0.00722
2088.41938	0.00745
2086.35980	0.00749
2084.30021	0.00743
2082.24063	0.00710
2080.18104	0.00662
2078.12146	0.00625
2076.06187	0.00625
2074.00229	0.00644
2071.94270	0.00639
2069.88312	0.00651
2067.82353	0.00688
2065.76395	0.00666
2063.70436	0.00607
2061.64478	0.00603
2059.58519	0.00680
2057.52561	0.00771
2055.46602	0.00777
2053.40644	0.00739
2051.34685	0.00731
2049.28727	0.00716
2047.22768	0.00692
2045.16810	0.00699
2043.10851	0.00714
2041.04892	0.00695
2038.98934	0.00652
2036.92975	0.00621
2034.87017	0.00625
2032.81058	0.00661
2030.75100	0.00672
2028.69141	0.00642
2026.63183	0.00608
2024.57224	0.00566
2022.51266	0.00560
2020.45307	0.00595
2018.39349	0.00558
2016.33390	0.00447
2014.27432	0.00399
2012.21473	0.00451
2010.15515	0.00512
2008.09556	0.00496
2006.03598	0.00426
2003.97639	0.00386
2001.91681	0.00398
1999.85722	0.00445
1997.79764	0.00472
1995.73805	0.00456
1993.67847	0.00441
1991.61888	0.00471
1989.55929	0.00538
1987.49971	0.00566
1985.44012	0.00567
1983.38054	0.00627
1981.32095	0.00717
1979.26137	0.00736
1977.20178	0.00682
1975.14220	0.00607
1973.08261	0.00516
1971.02303	0.00415
1968.96344	0.00339
1966.90386	0.00318
1964.84427	0.00352
1962.78469	0.00383
1960.72510	0.00367
1958.66552	0.00324
1956.60593	0.00304
1954.54635	0.00383
1952.48676	0.00531
1950.42718	0.00611
1948.36759	0.00584
1946.30801	0.00505
1944.24842	0.00463
1942.18884	0.00491
1940.12925	0.00514
1938.06967	0.00507
1936.01008	0.00529
1933.95049	0.00582
1931.89091	0.00596
1929.83132	0.00556
1927.77174	0.00520
1925.71215	0.00512
1923.65257	0.00531
1921.59298	0.00592
1919.53340	0.00637
1917.47381	0.00620
1915.41423	0.00586
1913.35464	0.00563
1911.29506	0.00552
1909.23547	0.00554
1907.17589	0.00551
1905.11630	0.00545
1903.05672	0.00542
1900.99713	0.00553
1898.93755	0.00583
1896.87796	0.00608
1894.81838	0.00614
1892.75879	0.00611
1890.69921	0.00602
1888.63962	0.00582
1886.58004	0.00556
1884.52045	0.00528
1882.46086	0.00505
1880.40128	0.00512
1878.34169	0.00554
1876.28211	0.00593
1874.22252	0.00601
1872.16294	0.00583
1870.10335	0.00574
1868.04377	0.00591
1865.98418	0.00607
1863.92460	0.00608
1861.86501	0.00606
1859.80543	0.00612
1857.74584	0.00634
1855.68626	0.00649
1853.62667	0.00632
1851.56709	0.00610
1849.50750	0.00616
1847.44792	0.00645
1845.38833	0.00676
1843.32875	0.00697
1841.26916	0.00695
1839.20958	0.00672
1837.14999	0.00651
1835.09041	0.00653
1833.03082	0.00670
1830.97124	0.00686
1828.91165	0.00691
1826.85206	0.00684
1824.79248	0.00676
1822.73289	0.00675
1820.67331	0.00672
1818.61372	0.00673
1816.55414	0.00686
1814.49455	0.00708
1812.43497	0.00725
1810.37538	0.00731
1808.31580	0.00735
1806.25621	0.00745
1804.19663	0.00757
1802.13704	0.00764
1800.07746	0.00768
1798.01787	0.00785
1795.95829	0.00810
1793.89870	0.00822
1791.83912	0.00821
1789.77953	0.00824
1787.71995	0.00835
1785.66036	0.00852
1783.60078	0.00870
1781.54119	0.00889
1779.48161	0.00907
1777.42202	0.00913
1775.36243	0.00904
1773.30285	0.00888
1771.24326	0.00895
1769.18368	0.00937
1767.12409	0.00978
1765.06451	0.00996
1763.00492	0.01003
1760.94534	0.01012
1758.88575	0.01025
1756.82617	0.01049
1754.76658	0.01089
1752.70700	0.01135
1750.64741	0.01181
1748.58783	0.01225
1746.52824	0.01259
1744.46866	0.01278
1742.40907	0.01290
1740.34949	0.01302
1738.28990	0.01316
1736.23032	0.01337
1734.17073	0.01389
1732.11115	0.01467
1730.05156	0.01532
1727.99198	0.01585
1725.93239	0.01648
1723.87281	0.01730
1721.81322	0.01808
1719.75363	0.01880
1717.69405	0.02016
1715.63446	0.02265
1713.57488	0.02566
1711.51529	0.02900
1709.45571	0.03338
1707.39612	0.04030
1705.33654	0.05062
1703.27695	0.06197
1701.21737	0.07201
1699.15778	0.07935
1697.09820	0.08225
1695.03861	0.08250
1692.97903	0.08284
1690.91944	0.08414
1688.85986	0.08617
1686.80027	0.08869
1684.74069	0.09243
1682.68110	0.09739
1680.62152	0.10178
1678.56193	0.10556
1676.50235	0.10988
1674.44276	0.11490
1672.38318	0.11972
1670.32359	0.12495
1668.26401	0.13099
1666.20442	0.13637
1664.14483	0.14135
1662.08525	0.14701
1660.02566	0.15267
1657.96608	0.15735
1655.90649	0.16146
1653.84691	0.16642
1651.78732	0.17188
1649.72774	0.17576
1647.66815	0.17944
1645.60857	0.18404
1643.54898	0.18826
1641.48940	0.19186
1639.42981	0.19560
1637.37023	0.20061
1635.31064	0.20782
1633.25106	0.21548
1631.19147	0.22231
1629.13189	0.22941
1627.07230	0.23705
1625.01272	0.24436
1622.95313	0.25072
1620.89355	0.25494
1618.83396	0.25568
1616.77438	0.25242
1614.71479	0.24632
1612.65520	0.23881
1610.59562	0.22891
1608.53603	0.21592
1606.47645	0.20108
1604.41686	0.18587
1602.35728	0.17109
1600.29769	0.15766
1598.23811	0.14615
1596.17852	0.13617
1594.11894	0.12720
1592.05935	0.11919
1589.99977	0.11232
1587.94018	0.10685
1585.88060	0.10293
1583.82101	0.10050
1581.76143	0.09939
1579.70184	0.09936
1577.64226	0.10041
1575.58267	0.10271
1573.52309	0.10573
1571.46350	0.10928
1569.40392	0.11408
1567.34433	0.11954
1565.28475	0.12458
1563.22516	0.12888
1561.16558	0.13303
1559.10599	0.13913
1557.04640	0.14644
1554.98682	0.15199
1552.92723	0.15668
1550.86765	0.16149
1548.80806	0.16637
1546.74848	0.17105
1544.68889	0.17583
1542.62931	0.18119
1540.56972	0.18753
1538.51014	0.19405
1536.45055	0.19908
1534.39097	0.20390
1532.33138	0.20950
1530.27180	0.21453
1528.21221	0.21875
1526.15263	0.22273
1524.09304	0.22646
1522.03346	0.23026
1519.97387	0.23439
1517.91429	0.23848
1515.85470	0.24221
1513.79512	0.24480
1511.73553	0.24592
1509.67595	0.24537
1507.61636	0.24202
1505.55677	0.23655
1503.49719	0.23213
1501.43760	0.22813
1499.37802	0.22229
1497.31843	0.21390
1495.25885	0.20494
1493.19926	0.19728
1491.13968	0.18917
1489.08009	0.17898
1487.02051	0.16891
1484.96092	0.16070
1482.90134	0.15350
1480.84175	0.14653
1478.78217	0.14033
1476.72258	0.13515
1474.66300	0.13052
1472.60341	0.12635
1470.54383	0.12335
1468.48424	0.12168
1466.42466	0.12061
1464.36507	0.12005
1462.30549	0.12023
1460.24590	0.12123
1458.18632	0.12386
1456.12673	0.12867
1454.06715	0.13384
1452.00756	0.13830
1449.94797	0.14213
1447.88839	0.14504
1445.82880	0.14662
1443.76922	0.14694
1441.70963	0.14645
1439.65005	0.14511
1437.59046	0.14213
1435.53088	0.13737
1433.47129	0.13227
1431.41171	0.12733
1429.35212	0.12262
1427.29254	0.11896
1425.23295	0.11665
1423.17337	0.11552
1421.11378	0.11532
1419.05420	0.11580
1416.99461	0.11677
1414.93503	0.11786
1412.87544	0.11888
1410.81586	0.11970
1408.75627	0.12010
1406.69669	0.11985
1404.63710	0.11886
1402.57752	0.11734
1400.51793	0.11560
1398.45834	0.11382
1396.39876	0.11221
1394.33917	0.11088
1392.27959	0.10998
1390.22000	0.10941
1388.16042	0.10891
1386.10083	0.10841
1384.04125	0.10795
1381.98166	0.10747
1379.92208	0.10703
1377.86249	0.10675
1375.80291	0.10659
1373.74332	0.10643
1371.68374	0.10615
1369.62415	0.10551
1367.56457	0.10420
1365.50498	0.10203
1363.44540	0.09901
1361.38581	0.09565
1359.32623	0.09272
1357.26664	0.09042
1355.20706	0.08864
1353.14747	0.08741
1351.08789	0.08670
1349.02830	0.08644
1346.96872	0.08659
1344.90913	0.08710
1342.84954	0.08788
1340.78996	0.08878
1338.73037	0.08956
1336.67079	0.08992
1334.61120	0.08975
1332.55162	0.08913
1330.49203	0.08816
1328.43245	0.08691
1326.37286	0.08539
1324.31328	0.08366
1322.25369	0.08200
1320.19411	0.08067
1318.13452	0.07974
1316.07494	0.07916
1314.01535	0.07887
1311.95577	0.07880
1309.89618	0.07872
1307.83660	0.07851
1305.77701	0.07827
1303.71743	0.07806
1301.65784	0.07790
1299.59826	0.07773
1297.53867	0.07759
1295.47909	0.07751
1293.41950	0.07758
1291.35991	0.07784
1289.30033	0.07830
1287.24074	0.07902
1285.18116	0.07998
1283.12157	0.08113
1281.06199	0.08253
1279.00240	0.08442
1276.94282	0.08701
1274.88323	0.09016
1272.82365	0.09356
1270.76406	0.09709
1268.70448	0.10045
1266.64489	0.10327
1264.58531	0.10530
1262.52572	0.10644
1260.46614	0.10696
1258.40655	0.10726
1256.34697	0.10764
1254.28738	0.10830
1252.22780	0.10934
1250.16821	0.11067
1248.10863	0.11225
1246.04904	0.11414
1243.98946	0.11644
1241.92987	0.11901
1239.87029	0.12170
1237.81070	0.12453
1235.75111	0.12744
1233.69153	0.13016
1231.63194	0.13225
1229.57236	0.13337
1227.51277	0.13343
1225.45319	0.13242
1223.39360	0.13056
1221.33402	0.12816
1219.27443	0.12532
1217.21485	0.12193
1215.15526	0.11786
1213.09568	0.11326
1211.03609	0.10837
1208.97651	0.10334
1206.91692	0.09828
1204.85734	0.09335
1202.79775	0.08865
1200.73817	0.08427
1198.67858	0.08030
1196.61900	0.07685
1194.55941	0.07399
1192.49983	0.07168
1190.44024	0.06983
1188.38066	0.06832
1186.32107	0.06715
1184.26149	0.06657
1182.20190	0.06666
1180.14231	0.06735
1178.08273	0.06892
1176.02314	0.07141
1173.96356	0.07434
1171.90397	0.07706
1169.84439	0.07913
1167.78480	0.08045
1165.72522	0.08117
1163.66563	0.08132
1161.60605	0.08082
1159.54646	0.07975
1157.48688	0.07818
1155.42729	0.07612
1153.36771	0.07365
1151.30812	0.07087
1149.24854	0.06797
1147.18895	0.06518
1145.12937	0.06258
1143.06978	0.06023
1141.01020	0.05818
1138.95061	0.05648
1136.89103	0.05513
1134.83144	0.05385
1132.77186	0.05260
1130.71227	0.05161
1128.65268	0.05094
1126.59310	0.05037
1124.53351	0.04982
1122.47393	0.04935
1120.41434	0.04900
1118.35476	0.04876
1116.29517	0.04860
1114.23559	0.04853
1112.17600	0.04865
1110.11642	0.04890
1108.05683	0.04923
1105.99725	0.04963
1103.93766	0.04996
1101.87808	0.05008
1099.81849	0.04993
1097.75891	0.04967
1095.69932	0.04969
1093.63974	0.05008
1091.58015	0.05076
1089.52057	0.05180
1087.46098	0.05326
1085.40140	0.05508
1083.34181	0.05715
1081.28223	0.05939
1079.22264	0.06172
1077.16306	0.06397
1075.10347	0.06595
1073.04388	0.06757
1070.98430	0.06881
1068.92471	0.06966
1066.86513	0.07010
1064.80554	0.07011
1062.74596	0.06981
1060.68637	0.06925
1058.62679	0.06843
1056.56720	0.06743
1054.50762	0.06636
1052.44803	0.06527
1050.38845	0.06423
1048.32886	0.06331
1046.26928	0.06243
1044.20969	0.06154
1042.15011	0.06066
1040.09052	0.05961
1038.03094	0.05832
1035.97135	0.05690
1033.91177	0.05539
1031.85218	0.05385
1029.79260	0.05239
1027.73301	0.05100
1025.67343	0.04974
1023.61384	0.04904
1021.55425	0.04913
1019.49467	0.04989
1017.43508	0.05096
1015.37550	0.05202
1013.31591	0.05266
1011.25633	0.05270
1009.19674	0.05249
1007.13716	0.05255
1005.07757	0.05295
1003.01799	0.05347
1000.95840	0.05393
998.89882	0.05399
996.83923	0.05334
994.77965	0.05198
992.72006	0.05000
990.66048	0.04755
988.60089	0.04514
986.54131	0.04351
984.48172	0.04308
982.42214	0.04371
980.36255	0.04489
978.30297	0.04606
976.24338	0.04673
974.18380	0.04656
972.12421	0.04550
970.06463	0.04392
968.00504	0.04222
965.94545	0.04069
963.88587	0.03947
961.82628	0.03855
959.76670	0.03783
957.70711	0.03726
955.64753	0.03677
953.58794	0.03630
951.52836	0.03579
949.46877	0.03531
947.40919	0.03491
945.34960	0.03458
943.29002	0.03425
941.23043	0.03391
939.17085	0.03367
937.11126	0.03366
935.05168	0.03381
932.99209	0.03396
930.93251	0.03405
928.87292	0.03397
926.81334	0.03360
924.75375	0.03299
922.69417	0.03218
920.63458	0.03125
918.57500	0.03030
916.51541	0.02935
914.45582	0.02852
912.39624	0.02790
910.33665	0.02739
908.27707	0.02697
906.21748	0.02674
904.15790	0.02672
902.09831	0.02680
900.03873	0.02677
897.97914	0.02674
895.91956	0.02678
893.85997	0.02662
891.80039	0.02628
889.74080	0.02605
887.68122	0.02594
885.62163	0.02588
883.56205	0.02586
881.50246	0.02591
879.44288	0.02595
877.38329	0.02588
875.32371	0.02574
873.26412	0.02564
871.20454	0.02564
869.14495	0.02576
867.08537	0.02598
865.02578	0.02631
862.96620	0.02680
860.90661	0.02747
858.84702	0.02844
856.78744	0.02958
854.72785	0.03050
852.66827	0.03111
850.60868	0.03143
848.54910	0.03143
846.48951	0.03125
844.42993	0.03103
842.37034	0.03106
840.31076	0.03146
838.25117	0.03213
836.19159	0.03286
834.13200	0.03361
832.07242	0.03438
830.01283	0.03497
827.95325	0.03530
825.89366	0.03547
823.83408	0.03543
821.77449	0.03518
819.71491	0.03494
817.65532	0.03493
815.59574	0.03516
813.53615	0.03544
811.47657	0.03570
809.41698	0.03601
807.35740	0.03630
805.29781	0.03638
803.23822	0.03629
801.17864	0.03630
799.11905	0.03648
797.05947	0.03680
794.99988	0.03720
792.94030	0.03760
790.88071	0.03803
788.82113	0.03875
786.76154	0.03972
784.70196	0.04045
782.64237	0.04084
780.58279	0.04137
778.52320	0.04222
776.46362	0.04322
774.40403	0.04429
772.34445	0.04539
770.28486	0.04636
768.22528	0.04711
766.16569	0.04778
764.10611	0.04845
762.04652	0.04905
759.98694	0.04956
757.92735	0.05011
755.86777	0.05079
753.80818	0.05160
751.74859	0.05251
749.68901	0.05343
747.62942	0.05442
745.56984	0.05558
743.51025	0.05691
741.45067	0.05838
739.39108	0.05981
737.33150	0.06112
735.27191	0.06251
733.21233	0.06410
731.15274	0.06566
729.09316	0.06706
727.03357	0.06850
724.97399	0.07000
722.91440	0.07119
720.85482	0.07205
718.79523	0.07346
716.73565	0.07443
714.67606	0.07539
712.61648	0.07644
710.55689	0.07763
708.49731	0.07897
706.43772	0.08029
704.37814	0.08150
702.31855	0.08253
700.25897	0.08338
698.19938	0.08411
696.13979	0.08471
694.08021	0.08540
692.02062	0.08623
689.96104	0.08696
687.90145	0.08746
685.84187	0.08782
683.78228	0.08820
681.72270	0.08837
679.66311	0.08813
677.60353	0.08790
675.54394	0.08792
673.48436	0.08780
671.42477	0.08962
669.36519	0.09353
667.30560	0.08430
665.24602	0.08786
663.18643	0.08890
661.12685	0.08879
659.06726	0.08916
657.00768	0.08963
654.94809	0.08991
652.88851	0.09017
650.82892	0.09035
648.76934	0.09038
646.70975	0.09080
644.65016	0.09110
642.59058	0.09134
640.53099	0.09169
638.47141	0.09203
636.41182	0.09217
634.35224	0.09222
632.29265	0.09233
630.23307	0.09242
628.17348	0.09246
626.11390	0.09256
624.05431	0.09263
621.99473	0.09264
619.93514	0.09272
617.87556	0.09285
615.81597	0.09296
613.75639	0.09322
611.69680	0.09363
609.63722	0.09383
607.57763	0.09342
605.51805	0.09262
603.45846	0.09188
601.39888	0.09108
599.33929	0.09022
597.27971	0.08951
595.22012	0.08897
593.16054	0.08847
591.10095	0.08794
589.04136	0.08738
586.98178	0.08700
584.92219	0.08688
582.86261	0.08675
580.80302	0.08658
578.74344	0.08660
576.68385	0.08663
574.62427	0.08660
572.56468	0.08670
570.50510	0.08698
568.44551	0.08745
566.38593	0.08812
564.32634	0.08904
562.26676	0.09034
560.20717	0.09198
558.14759	0.09378
556.08800	0.09562
554.02842	0.09725
551.96883	0.09856
549.90925	0.09964
547.84966	0.10035
545.79008	0.10043
543.73049	0.10008
541.67091	0.09956
539.61132	0.09888
537.55173	0.09814
535.49215	0.09740
533.43256	0.09673
531.37298	0.09606
529.31339	0.09532
527.25381	0.09463
525.19422	0.09387
523.13464	0.09315
521.07505	0.09275
519.01547	0.09233
516.95588	0.09168
514.89630	0.09122
512.83671	0.09090
510.77713	0.09050
508.71754	0.09005
506.65796	0.08949
504.59837	0.08893
502.53879	0.08848
500.47920	0.08805
498.41962	0.08751
496.36003	0.08699
494.30045	0.08677
492.24086	0.08679
490.18128	0.08668
488.12169	0.08643
486.06211	0.08613
484.00252	0.08554
481.94293	0.08481
479.88335	0.08425
477.82376	0.08373
475.76418	0.08310
473.70459	0.08253
471.64501	0.08193
469.58542	0.08110
467.52584	0.08030
465.46625	0.07999
463.40667	0.07998
461.34708	0.07971
459.28750	0.07915
457.22791	0.07860
455.16833	0.07801
453.10874	0.07743
451.04916	0.07702
448.98957	0.07675
446.92999	0.07644
444.87040	0.07607
442.81082	0.07581
440.75123	0.07573
438.69165	0.07575
436.63206	0.07588
434.57248	0.07602
432.51289	0.07635
430.45330	0.07743
428.39372	0.07901
426.33413	0.08000
424.27455	0.07980
422.21496	0.07901
420.15538	0.07889
418.09579	0.07923
416.03621	0.07868
413.97662	0.07740
411.91704	0.07610
409.85745	0.07524
407.79787	0.07473
405.73828	0.07415
403.67870	0.07355
401.61911	0.07291
399.55953	0.07193
