3997.65486	0.03243
3995.59527	0.03255
3993.53569	0.03237
3991.47610	0.03259
3989.41652	0.03320
3987.35693	0.03362
3985.29735	0.03382
3983.23776	0.03364
3981.17817	0.03296
3979.11859	0.03227
3977.05900	0.03208
3974.99942	0.03183
3972.93983	0.03186
3970.88025	0.03258
3968.82066	0.03286
3966.76108	0.03222
3964.70149	0.03192
3962.64191	0.03219
3960.58232	0.03172
3958.52274	0.03135
3956.46315	0.03154
3954.40357	0.03134
3952.34398	0.03130
3950.28440	0.03232
3948.22481	0.03290
3946.16523	0.03196
3944.10564	0.03177
3942.04606	0.03166
3939.98647	0.03066
3937.92689	0.03031
3935.86730	0.03058
3933.80772	0.03187
3931.74813	0.03250
3929.68855	0.03123
3927.62896	0.03098
3925.56937	0.03249
3923.50979	0.03181
3921.45020	0.03024
3919.39062	0.03103
3917.33103	0.03222
3915.27145	0.03119
3913.21186	0.02976
3911.15228	0.02909
3909.09269	0.02809
3907.03311	0.02888
3904.97352	0.03163
3902.91394	0.03196
3900.85435	0.03122
3898.79477	0.03043
3896.73518	0.02806
3894.67560	0.02824
3892.61601	0.03154
3890.55643	0.03105
3888.49684	0.02878
3886.43726	0.03068
3884.37767	0.02968
3882.31809	0.02884
3880.25850	0.03033
3878.19892	0.02832
3876.13933	0.02911
3874.07974	0.03125
3872.02016	0.03138
3869.96057	0.03121
3867.90099	0.02760
3865.84140	0.02819
3863.78182	0.03112
3861.72223	0.03015
3859.66265	0.02718
3857.60306	0.02623
3855.54348	0.03169
3853.48389	0.03655
3851.42431	0.03013
3849.36472	0.02509
3847.30514	0.02555
3845.24555	0.02739
3843.18597	0.02790
3841.12638	0.02821
3839.06680	0.02979
3837.00721	0.02830
3834.94763	0.02566
3832.88804	0.02620
3830.82846	0.02645
3828.76887	0.02610
3826.70929	0.02605
3824.64970	0.02533
3822.59012	0.02893
3820.53053	0.02978
3818.47094	0.02731
3816.41136	0.03034
3814.35177	0.02939
3812.29219	0.02605
3810.23260	0.02635
3808.17302	0.02892
3806.11343	0.02700
3804.05385	0.02485
3801.99426	0.02873
3799.93468	0.02741
3797.87509	0.02574
3795.81551	0.02658
3793.75592	0.02620
3791.69634	0.02690
3789.63675	0.02733
3787.57717	0.02710
3785.51758	0.02713
3783.45800	0.02641
3781.39841	0.02730
3779.33883	0.02875
3777.27924	0.02651
3775.21966	0.02431
3773.16007	0.02505
3771.10049	0.02823
3769.04090	0.02896
3766.98132	0.02793
3764.92173	0.02720
3762.86214	0.02604
3760.80256	0.02781
3758.74297	0.02846
3756.68339	0.02529
3754.62380	0.02481
3752.56422	0.02990
3750.50463	0.03134
3748.44505	0.02499
3746.38546	0.02567
3744.32588	0.03126
3742.26629	0.02737
3740.20671	0.02415
3738.14712	0.02640
3736.08754	0.02964
3734.02795	0.02932
3731.96837	0.02682
3729.90878	0.02465
3727.84920	0.02609
3725.78961	0.02789
3723.73003	0.02755
3721.67044	0.02740
3719.61086	0.02710
3717.55127	0.02594
3715.49169	0.02534
3713.43210	0.02862
3711.37251	0.03222
3709.31293	0.03039
3707.25334	0.02687
3705.19376	0.02603
3703.13417	0.02873
3701.07459	0.03044
3699.01500	0.02923
3696.95542	0.02825
3694.89583	0.02669
3692.83625	0.02636
3690.77666	0.02957
3688.71708	0.03160
3686.65749	0.02869
3684.59791	0.02679
3682.53832	0.02736
3680.47874	0.02789
3678.41915	0.02985
3676.35957	0.03424
3674.29998	0.03128
3672.24040	0.02926
3670.18081	0.03469
3668.12123	0.03423
3666.06164	0.03205
3664.00206	0.03326
3661.94247	0.03415
3659.88289	0.03447
3657.82330	0.03683
3655.76371	0.03687
3653.70413	0.03420
3651.64454	0.03830
3649.58496	0.04489
3647.52537	0.04484
3645.46579	0.04164
3643.40620	0.04189
3641.34662	0.04472
3639.28703	0.04668
3637.22745	0.04749
3635.16786	0.04772
3633.10828	0.04724
3631.04869	0.05046
3628.98911	0.05665
3626.92952	0.05485
3624.86994	0.05155
3622.81035	0.05268
3620.75077	0.05675
3618.69118	0.05863
3616.63160	0.05716
3614.57201	0.05852
3612.51243	0.06091
3610.45284	0.06216
3608.39326	0.06377
3606.33367	0.06354
3604.27408	0.06398
3602.21450	0.06663
3600.15491	0.06853
3598.09533	0.06974
3596.03574	0.07215
3593.97616	0.07312
3591.91657	0.07205
3589.85699	0.07429
3587.79740	0.07957
3585.73782	0.08005
3583.67823	0.07828
3581.61865	0.07910
3579.55906	0.08119
3577.49948	0.08308
3575.43989	0.08473
3573.38031	0.08568
3571.32072	0.08671
3569.26114	0.09038
3567.20155	0.09454
3565.14197	0.09437
3563.08238	0.09348
3561.02280	0.09492
3558.96321	0.09637
3556.90363	0.09692
3554.84404	0.09810
3552.78446	0.10020
3550.72487	0.10189
3548.66528	0.10438
3546.60570	0.10790
3544.54611	0.10986
3542.48653	0.11017
3540.42694	0.11076
3538.36736	0.11239
3536.30777	0.11416
3534.24819	0.11533
3532.18860	0.11669
3530.12902	0.11824
3528.06943	0.11932
3526.00985	0.12042
3523.95026	0.12219
3521.89068	0.12359
3519.83109	0.12479
3517.77151	0.12640
3515.71192	0.12770
3513.65234	0.12868
3511.59275	0.13001
3509.53317	0.13109
3507.47358	0.13098
3505.41400	0.13214
3503.35441	0.13453
3501.29483	0.13488
3499.23524	0.13474
3497.17565	0.13604
3495.11607	0.13746
3493.05648	0.13838
3490.99690	0.13923
3488.93731	0.14001
3486.87773	0.14056
3484.81814	0.14133
3482.75856	0.14247
3480.69897	0.14294
3478.63939	0.14343
3476.57980	0.14464
3474.52022	0.14568
3472.46063	0.14644
3470.40105	0.14729
3468.34146	0.14817
3466.28188	0.14878
3464.22229	0.14942
3462.16271	0.15047
3460.10312	0.15142
3458.04354	0.15237
3455.98395	0.15318
3453.92437	0.15370
3451.86478	0.15408
3449.80520	0.15487
3447.74561	0.15660
3445.68603	0.15751
3443.62644	0.15797
3441.56685	0.15899
3439.50727	0.16002
3437.44768	0.16125
3435.38810	0.16247
3433.32851	0.16361
3431.26893	0.16488
3429.20934	0.16620
3427.14976	0.16752
3425.09017	0.16884
3423.03059	0.17061
3420.97100	0.17272
3418.91142	0.17386
3416.85183	0.17446
3414.79225	0.17567
3412.73266	0.17735
3410.67308	0.17905
3408.61349	0.18070
3406.55391	0.18227
3404.49432	0.18351
3402.43474	0.18500
3400.37515	0.18717
3398.31557	0.18918
3396.25598	0.19062
3394.19640	0.19262
3392.13681	0.19463
3390.07723	0.19571
3388.01764	0.19677
3385.95805	0.19837
3383.89847	0.20022
3381.83888	0.20200
3379.77930	0.20358
3377.71971	0.20479
3375.66013	0.20615
3373.60054	0.20828
3371.54096	0.21085
3369.48137	0.21332
3367.42179	0.21585
3365.36220	0.21846
3363.30262	0.22096
3361.24303	0.22363
3359.18345	0.22679
3357.12386	0.23048
3355.06428	0.23404
3353.00469	0.23746
3350.94511	0.24128
3348.88552	0.24508
3346.82594	0.24872
3344.76635	0.25286
3342.70677	0.25749
3340.64718	0.26224
3338.58760	0.26742
3336.52801	0.27286
3334.46842	0.27816
3332.40884	0.28408
3330.34925	0.29106
3328.28967	0.29804
3326.23008	0.30478
3324.17050	0.31241
3322.11091	0.32106
3320.05133	0.32968
3317.99174	0.33771
3315.93216	0.34586
3313.87257	0.35472
3311.81299	0.36399
3309.75340	0.37369
3307.69382	0.38375
3305.63423	0.39405
3303.57465	0.40446
3301.51506	0.41477
3299.45548	0.42526
3297.39589	0.43571
3295.33631	0.44608
3293.27672	0.45693
3291.21714	0.46714
3289.15755	0.47522
3287.09797	0.48199
3285.03838	0.48816
3282.97880	0.49287
3280.91921	0.49534
3278.85962	0.49568
3276.80004	0.49452
3274.74045	0.49195
3272.68087	0.48744
3270.62128	0.48089
3268.56170	0.47287
3266.50211	0.46387
3264.44253	0.45434
3262.38294	0.44450
3260.32336	0.43431
3258.26377	0.42418
3256.20419	0.41459
3254.14460	0.40511
3252.08502	0.39549
3250.02543	0.38635
3247.96585	0.37805
3245.90626	0.37034
3243.84668	0.36266
3241.78709	0.35528
3239.72751	0.34815
3237.66792	0.34094
3235.60834	0.33414
3233.54875	0.32786
3231.48917	0.32172
3229.42958	0.31570
3227.36999	0.31004
3225.31041	0.30461
3223.25082	0.29900
3221.19124	0.29349
3219.13165	0.28866
3217.07207	0.28414
3215.01248	0.27947
3212.95290	0.27444
3210.89331	0.26938
3208.83373	0.26468
3206.77414	0.26014
3204.71456	0.25541
3202.65497	0.25060
3200.59539	0.24611
3198.53580	0.24195
3196.47622	0.23767
3194.41663	0.23302
3192.35705	0.22815
3190.29746	0.22344
3188.23788	0.21918
3186.17829	0.21495
3184.11871	0.21065
3182.05912	0.20680
3179.99954	0.20327
3177.93995	0.19940
3175.88037	0.19537
3173.82078	0.19158
3171.76119	0.18792
3169.70161	0.18468
3167.64202	0.18193
3165.58244	0.17921
3163.52285	0.17624
3161.46327	0.17312
3159.40368	0.17011
3157.34410	0.16723
3155.28451	0.16428
3153.22493	0.16149
3151.16534	0.15934
3149.10576	0.15778
3147.04617	0.15633
3144.98659	0.15463
3142.92700	0.15269
3140.86742	0.15078
3138.80783	0.14890
3136.74825	0.14704
3134.68866	0.14570
3132.62908	0.14502
3130.56949	0.14455
3128.50991	0.14413
3126.45032	0.14381
3124.39074	0.14375
3122.33115	0.14381
3120.27156	0.14396
3118.21198	0.14433
3116.15239	0.14471
3114.09281	0.14485
3112.03322	0.14520
3109.97364	0.14610
3107.91405	0.14716
3105.85447	0.14799
3103.79488	0.14882
3101.73530	0.15027
3099.67571	0.15172
3097.61613	0.15267
3095.55654	0.15358
3093.49696	0.15474
3091.43737	0.15639
3089.37779	0.15803
3087.31820	0.15910
3085.25862	0.15970
3083.19903	0.16026
3081.13945	0.16095
3079.07986	0.16128
3077.02028	0.16098
3074.96069	0.16037
3072.90111	0.15977
3070.84152	0.15936
3068.78194	0.15910
3066.72235	0.15801
3064.66276	0.15575
3062.60318	0.15365
3060.54359	0.15218
3058.48401	0.15050
3056.42442	0.14802
3054.36484	0.14511
3052.30525	0.14234
3050.24567	0.13942
3048.18608	0.13644
3046.12650	0.13392
3044.06691	0.13152
3042.00733	0.12869
3039.94774	0.12550
3037.88816	0.12261
3035.82857	0.12043
3033.76899	0.11853
3031.70940	0.11629
3029.64982	0.11363
3027.59023	0.11146
3025.53065	0.11010
3023.47106	0.10893
3021.41148	0.10770
3019.35189	0.10637
3017.29231	0.10519
3015.23272	0.10454
3013.17313	0.10414
3011.11355	0.10328
3009.05396	0.10211
3006.99438	0.10162
3004.93479	0.10201
3002.87521	0.10278
3000.81562	0.10383
2998.75604	0.10529
2996.69645	0.10711
2994.63687	0.10928
2992.57728	0.11164
2990.51770	0.11366
2988.45811	0.11554
2986.39853	0.11753
2984.33894	0.11919
2982.27936	0.12059
2980.21977	0.12190
2978.16019	0.12275
2976.10060	0.12309
2974.04102	0.12313
2971.98143	0.12304
2969.92185	0.12283
2967.86226	0.12252
2965.80268	0.12205
2963.74309	0.12097
2961.68351	0.11945
2959.62392	0.11813
2957.56433	0.11692
2955.50475	0.11575
2953.44516	0.11522
2951.38558	0.11567
2949.32599	0.11697
2947.26641	0.11880
2945.20682	0.12091
2943.14724	0.12328
2941.08765	0.12581
2939.02807	0.12838
2936.96848	0.13064
2934.90890	0.13229
2932.84931	0.13350
2930.78973	0.13389
2928.73014	0.13289
2926.67056	0.13101
2924.61097	0.12886
2922.55139	0.12623
2920.49180	0.12317
2918.43222	0.12017
2916.37263	0.11729
2914.31305	0.11402
2912.25346	0.11007
2910.19388	0.10610
2908.13429	0.10303
2906.07471	0.10108
2904.01512	0.09961
2901.95553	0.09803
2899.89595	0.09635
2897.83636	0.09493
2895.77678	0.09389
2893.71719	0.09287
2891.65761	0.09182
2889.59802	0.09105
2887.53844	0.09071
2885.47885	0.09098
2883.41927	0.09168
2881.35968	0.09254
2879.30010	0.09335
2877.24051	0.09373
2875.18093	0.09355
2873.12134	0.09274
2871.06176	0.09122
2869.00217	0.08919
2866.94259	0.08700
2864.88300	0.08492
2862.82342	0.08316
2860.76383	0.08174
2858.70425	0.08043
2856.64466	0.07932
2854.58508	0.07872
2852.52549	0.07847
2850.46590	0.07774
2848.40632	0.07601
2846.34673	0.07367
2844.28715	0.07144
2842.22756	0.06960
2840.16798	0.06827
2838.10839	0.06749
2836.04881	0.06709
2833.98922	0.06667
2831.92964	0.06602
2829.87005	0.06542
2827.81047	0.06509
2825.75088	0.06482
2823.69130	0.06447
2821.63171	0.06415
2819.57213	0.06371
2817.51254	0.06307
2815.45296	0.06253
2813.39337	0.06215
2811.33379	0.06181
2809.27420	0.06164
2807.21462	0.06142
2805.15503	0.06091
2803.09545	0.06033
2801.03586	0.05992
2798.97628	0.05978
2796.91669	0.05956
2794.85710	0.05896
2792.79752	0.05841
2790.73793	0.05823
2788.67835	0.05803
2786.61876	0.05734
2784.55918	0.05642
2782.49959	0.05571
2780.44001	0.05524
2778.38042	0.05477
2776.32084	0.05442
2774.26125	0.05412
2772.20167	0.05353
2770.14208	0.05286
2768.08250	0.05241
2766.02291	0.05209
2763.96333	0.05165
2761.90374	0.05105
2759.84416	0.05048
2757.78457	0.05011
2755.72499	0.04983
2753.66540	0.04937
2751.60582	0.04888
2749.54623	0.04856
2747.48665	0.04819
2745.42706	0.04760
2743.36747	0.04699
2741.30789	0.04652
2739.24830	0.04619
2737.18872	0.04596
2735.12913	0.04562
2733.06955	0.04497
2731.00996	0.04440
2728.95038	0.04422
2726.89079	0.04413
2724.83121	0.04374
2722.77162	0.04315
2720.71204	0.04272
2718.65245	0.04258
2716.59287	0.04240
2714.53328	0.04202
2712.47370	0.04163
2710.41411	0.04134
2708.35453	0.04103
2706.29494	0.04076
2704.23536	0.04071
2702.17577	0.04067
2700.11619	0.04035
2698.05660	0.03989
2695.99702	0.03963
2693.93743	0.03960
2691.87785	0.03943
2689.81826	0.03915
2687.75867	0.03895
2685.69909	0.03872
2683.63950	0.03852
2681.57992	0.03839
2679.52033	0.03826
2677.46075	0.03815
2675.40116	0.03790
2673.34158	0.03755
2671.28199	0.03731
2669.22241	0.03712
2667.16282	0.03694
2665.10324	0.03702
2663.04365	0.03719
2660.98407	0.03713
2658.92448	0.03699
2656.86490	0.03689
2654.80531	0.03671
2652.74573	0.03660
2650.68614	0.03648
2648.62656	0.03617
2646.56697	0.03584
2644.50739	0.03577
2642.44780	0.03596
2640.38822	0.03621
2638.32863	0.03625
2636.26904	0.03608
2634.20946	0.03567
2632.14987	0.03517
2630.09029	0.03513
2628.03070	0.03545
2625.97112	0.03543
2623.91153	0.03498
2621.85195	0.03454
2619.79236	0.03448
2617.73278	0.03459
2615.67319	0.03428
2613.61361	0.03372
2611.55402	0.03336
2609.49444	0.03340
2607.43485	0.03382
2605.37527	0.03406
2603.31568	0.03378
2601.25610	0.03343
2599.19651	0.03310
2597.13693	0.03237
2595.07734	0.03146
2593.01776	0.03102
2590.95817	0.03095
2588.89859	0.03083
2586.83900	0.03066
2584.77942	0.03051
2582.71983	0.03029
2580.66024	0.02999
2578.60066	0.02964
2576.54107	0.02943
2574.48149	0.02931
2572.42190	0.02897
2570.36232	0.02856
2568.30273	0.02839
2566.24315	0.02831
2564.18356	0.02810
2562.12398	0.02789
2560.06439	0.02775
2558.00481	0.02757
2555.94522	0.02752
2553.88564	0.02761
2551.82605	0.02741
2549.76647	0.02685
2547.70688	0.02644
2545.64730	0.02631
2543.58771	0.02601
2541.52813	0.02577
2539.46854	0.02599
2537.40896	0.02617
2535.34937	0.02606
2533.28979	0.02584
2531.23020	0.02562
2529.17062	0.02530
2527.11103	0.02509
2525.05144	0.02525
2522.99186	0.02546
2520.93227	0.02543
2518.87269	0.02514
2516.81310	0.02481
2514.75352	0.02455
2512.69393	0.02440
2510.63435	0.02463
2508.57476	0.02508
2506.51518	0.02512
2504.45559	0.02486
2502.39601	0.02477
2500.33642	0.02473
2498.27684	0.02455
2496.21725	0.02438
2494.15767	0.02437
2492.09808	0.02454
2490.03850	0.02470
2487.97891	0.02470
2485.91933	0.02460
2483.85974	0.02434
2481.80016	0.02394
2479.74057	0.02388
2477.68099	0.02427
2475.62140	0.02433
2473.56181	0.02376
2471.50223	0.02346
2469.44264	0.02380
2467.38306	0.02407
2465.32347	0.02402
2463.26389	0.02399
2461.20430	0.02401
2459.14472	0.02381
2457.08513	0.02335
2455.02555	0.02316
2452.96596	0.02331
2450.90638	0.02338
2448.84679	0.02321
2446.78721	0.02291
2444.72762	0.02291
2442.66804	0.02339
2440.60845	0.02370
2438.54887	0.02342
2436.48928	0.02303
2434.42970	0.02277
2432.37011	0.02245
2430.31053	0.02215
2428.25094	0.02214
2426.19136	0.02223
2424.13177	0.02201
2422.07219	0.02171
2420.01260	0.02175
2417.95301	0.02180
2415.89343	0.02154
2413.83384	0.02125
2411.77426	0.02114
2409.71467	0.02117
2407.65509	0.02102
2405.59550	0.02064
2403.53592	0.02042
2401.47633	0.02046
2399.41675	0.01959
2397.35716	0.01956
2395.29758	0.01980
2393.23799	0.01990
2391.17841	0.02017
2389.11882	0.02095
2387.05924	0.02218
2384.99965	0.02352
2382.94007	0.02474
2380.88048	0.02555
2378.82090	0.02569
2376.76131	0.02608
2374.70173	0.02370
2372.64214	0.02310
2370.58256	0.02565
2368.52297	0.02555
2366.46338	0.02617
2364.40380	0.02382
2362.34421	0.02176
2360.28463	0.02555
2358.22504	0.02456
2356.16546	0.02485
2354.10587	0.02547
2352.04629	0.02624
2349.98670	0.03290
2347.92712	0.02964
2345.86753	0.02576
2343.80795	0.02870
2341.74836	0.02280
2339.68878	0.01815
2337.62919	0.01726
2335.56961	0.02259
2333.51002	0.03524
2331.45044	0.03802
2329.39085	0.03640
2327.33127	0.02628
2325.27168	0.01817
2323.21210	0.01290
2321.15251	0.01177
2319.09293	0.01359
2317.03334	0.01505
2314.97376	0.01773
2312.91417	0.01779
2310.85458	0.01794
2308.79500	0.01902
2306.73541	0.01933
2304.67583	0.02009
2302.61624	0.02060
2300.55666	0.02115
2298.49707	0.02173
2296.43749	0.02254
2294.37790	0.02230
2292.31832	0.02195
2290.25873	0.02160
2288.19915	0.02145
2286.13956	0.02126
2284.07998	0.02098
2282.02039	0.02041
2279.96081	0.02001
2277.90122	0.01981
2275.84164	0.01951
2273.78205	0.01945
2271.72247	0.01954
2269.66288	0.01949
2267.60330	0.01923
2265.54371	0.01938
2263.48413	0.01933
2261.42454	0.01872
2259.36495	0.01804
2257.30537	0.01789
2255.24578	0.01822
2253.18620	0.01860
2251.12661	0.01838
2249.06703	0.01764
2247.00744	0.01804
2244.94786	0.01806
2242.88827	0.01775
2240.82869	0.01792
2238.76910	0.01769
2236.70952	0.01688
2234.64993	0.01691
2232.59035	0.01783
2230.53076	0.01821
2228.47118	0.01754
2226.41159	0.01672
2224.35201	0.01635
2222.29242	0.01616
2220.23284	0.01670
2218.17325	0.01769
2216.11367	0.01779
2214.05408	0.01684
2211.99450	0.01546
2209.93491	0.01475
2207.87533	0.01512
2205.81574	0.01573
2203.75615	0.01579
2201.69657	0.01520
2199.63698	0.01493
2197.57740	0.01538
2195.51781	0.01588
2193.45823	0.01591
2191.39864	0.01542
2189.33906	0.01558
2187.27947	0.01670
2185.21989	0.01719
2183.16030	0.01694
2181.10072	0.01693
2179.04113	0.01688
2176.98155	0.01626
2174.92196	0.01613
2172.86238	0.01668
2170.80279	0.01618
2168.74321	0.01469
2166.68362	0.01415
2164.62404	0.01557
2162.56445	0.01754
2160.50487	0.01632
2158.44528	0.01196
2156.38570	0.00934
2154.32611	0.00977
2152.26652	0.01146
2150.20694	0.01292
2148.14735	0.01319
2146.08777	0.01270
2144.02818	0.01306
2141.96860	0.01462
2139.90901	0.01569
2137.84943	0.01500
2135.78984	0.01330
2133.73026	0.01224
2131.67067	0.01285
2129.61109	0.01457
2127.55150	0.01578
2125.49192	0.01555
2123.43233	0.01475
2121.37275	0.01479
2119.31316	0.01551
2117.25358	0.01612
2115.19399	0.01686
2113.13441	0.01775
2111.07482	0.01789
2109.01524	0.01732
2106.95565	0.01666
2104.89607	0.01626
2102.83648	0.01664
2100.77690	0.01729
2098.71731	0.01719
2096.65772	0.01633
2094.59814	0.01540
2092.53855	0.01543
2090.47897	0.01634
2088.41938	0.01686
2086.35980	0.01642
2084.30021	0.01558
2082.24063	0.01519
2080.18104	0.01549
2078.12146	0.01562
2076.06187	0.01545
2074.00229	0.01526
2071.94270	0.01498
2069.88312	0.01499
2067.82353	0.01522
2065.76395	0.01523
2063.70436	0.01509
2061.64478	0.01504
2059.58519	0.01515
2057.52561	0.01525
2055.46602	0.01513
2053.40644	0.01511
2051.34685	0.01533
2049.28727	0.01517
2047.22768	0.01533
2045.16810	0.01611
2043.10851	0.01577
2041.04892	0.01418
2038.98934	0.01305
2036.92975	0.01285
2034.87017	0.01284
2032.81058	0.01290
2030.75100	0.01252
2028.69141	0.01178
2026.63183	0.01170
2024.57224	0.01200
2022.51266	0.01213
2020.45307	0.01220
2018.39349	0.01202
2016.33390	0.01107
2014.27432	0.01071
2012.21473	0.01203
2010.15515	0.01296
2008.09556	0.01216
2006.03598	0.01077
2003.97639	0.01043
2001.91681	0.01135
1999.85722	0.01231
1997.79764	0.01221
1995.73805	0.01180
1993.67847	0.01223
1991.61888	0.01240
1989.55929	0.01220
1987.49971	0.01251
1985.44012	0.01259
1983.38054	0.01317
1981.32095	0.01386
1979.26137	0.01298
1977.20178	0.01104
1975.14220	0.00941
1973.08261	0.00917
1971.02303	0.01050
1968.96344	0.01189
1966.90386	0.01193
1964.84427	0.01085
1962.78469	0.00992
1960.72510	0.00947
1958.66552	0.00981
1956.60593	0.01046
1954.54635	0.01074
1952.48676	0.01137
1950.42718	0.01229
1948.36759	0.01215
1946.30801	0.01117
1944.24842	0.01130
1942.18884	0.01189
1940.12925	0.01117
1938.06967	0.01085
1936.01008	0.01134
1933.95049	0.01187
1931.89091	0.01214
1929.83132	0.01212
1927.77174	0.01201
1925.71215	0.01231
1923.65257	0.01311
1921.59298	0.01303
1919.53340	0.01315
1917.47381	0.01315
1915.41423	0.01188
1913.35464	0.01135
1911.29506	0.01174
1909.23547	0.01224
1907.17589	0.01238
1905.11630	0.01250
1903.05672	0.01260
1900.99713	0.01242
1898.93755	0.01226
1896.87796	0.01251
1894.81838	0.01262
1892.75879	0.01232
1890.69921	0.01288
1888.63962	0.01301
1886.58004	0.01220
1884.52045	0.01199
1882.46086	0.01203
1880.40128	0.01219
1878.34169	0.01268
1876.28211	0.01303
1874.22252	0.01271
1872.16294	0.01253
1870.10335	0.01365
1868.04377	0.01408
1865.98418	0.01273
1863.92460	0.01198
1861.86501	0.01214
1859.80543	0.01234
1857.74584	0.01238
1855.68626	0.01222
1853.62667	0.01195
1851.56709	0.01193
1849.50750	0.01227
1847.44792	0.01280
1845.38833	0.01410
1843.32875	0.01440
1841.26916	0.01290
1839.20958	0.01246
1837.14999	0.01292
1835.09041	0.01289
1833.03082	0.01300
1830.97124	0.01407
1828.91165	0.01406
1826.85206	0.01352
1824.79248	0.01395
1822.73289	0.01369
1820.67331	0.01338
1818.61372	0.01356
1816.55414	0.01361
1814.49455	0.01362
1812.43497	0.01429
1810.37538	0.01479
1808.31580	0.01449
1806.25621	0.01419
1804.19663	0.01442
1802.13704	0.01516
1800.07746	0.01542
1798.01787	0.01470
1795.95829	0.01441
1793.89870	0.01570
1791.83912	0.01658
1789.77953	0.01536
1787.71995	0.01496
1785.66036	0.01588
1783.60078	0.01631
1781.54119	0.01672
1779.48161	0.01667
1777.42202	0.01583
1775.36243	0.01591
1773.30285	0.01737
1771.24326	0.01769
1769.18368	0.01711
1767.12409	0.01703
1765.06451	0.01713
1763.00492	0.01844
1760.94534	0.01887
1758.88575	0.01853
1756.82617	0.01884
1754.76658	0.01840
1752.70700	0.01935
1750.64741	0.02148
1748.58783	0.02200
1746.52824	0.02156
1744.46866	0.02156
1742.40907	0.02226
1740.34949	0.02295
1738.28990	0.02212
1736.23032	0.02319
1734.17073	0.02665
1732.11115	0.02638
1730.05156	0.02580
1727.99198	0.02670
1725.93239	0.02812
1723.87281	0.02940
1721.81322	0.02989
1719.75363	0.03245
1717.69405	0.03723
1715.63446	0.04061
1713.57488	0.04370
1711.51529	0.04844
1709.45571	0.05627
1707.39612	0.06939
1705.33654	0.08725
1703.27695	0.10594
1701.21737	0.12567
1699.15778	0.14023
1697.09820	0.14633
1695.03861	0.14735
1692.97903	0.14617
1690.91944	0.14799
1688.85986	0.15123
1686.80027	0.15655
1684.74069	0.16735
1682.68110	0.17635
1680.62152	0.18168
1678.56193	0.18796
1676.50235	0.19735
1674.44276	0.20718
1672.38318	0.21597
1670.32359	0.22789
1668.26401	0.23921
1666.20442	0.24709
1664.14483	0.25724
1662.08525	0.26959
1660.02566	0.27904
1657.96608	0.28558
1655.90649	0.29476
1653.84691	0.31089
1651.78732	0.32219
1649.72774	0.32692
1647.66815	0.33697
1645.60857	0.34866
1643.54898	0.35601
1641.48940	0.36241
1639.42981	0.37049
1637.37023	0.38488
1635.31064	0.40556
1633.25106	0.42221
1631.19147	0.43616
1629.13189	0.45362
1627.07230	0.47319
1625.01272	0.49256
1622.95313	0.50946
1620.89355	0.51743
1618.83396	0.51762
1616.77438	0.51055
1614.71479	0.49340
1612.65520	0.47155
1610.59562	0.44636
1608.53603	0.41558
1606.47645	0.38148
1604.41686	0.34801
1602.35728	0.31699
1600.29769	0.28972
1598.23811	0.26720
1596.17852	0.24843
1594.11894	0.23168
1592.05935	0.21661
1589.99977	0.20376
1587.94018	0.19357
1585.88060	0.18630
1583.82101	0.18170
1581.76143	0.17884
1579.70184	0.17811
1577.64226	0.18186
1575.58267	0.18732
1573.52309	0.19055
1571.46350	0.19690
1569.40392	0.20720
1567.34433	0.21631
1565.28475	0.22423
1563.22516	0.23101
1561.16558	0.24159
1559.10599	0.25961
1557.04640	0.27268
1554.98682	0.28055
1552.92723	0.28894
1550.86765	0.29867
1548.80806	0.30782
1546.74848	0.31571
1544.68889	0.32479
1542.62931	0.33737
1540.56972	0.35520
1538.51014	0.36901
1536.45055	0.37635
1534.39097	0.38775
1532.33138	0.40102
1530.27180	0.41058
1528.21221	0.41982
1526.15263	0.42944
1524.09304	0.43853
1522.03346	0.44959
1519.97387	0.46022
1517.91429	0.47048
1515.85470	0.48007
1513.79512	0.48458
1511.73553	0.48432
1509.67595	0.48264
1507.61636	0.48030
1505.55677	0.47025
1503.49719	0.45538
1501.43760	0.44251
1499.37802	0.42932
1497.31843	0.41207
1495.25885	0.39123
1493.19926	0.37192
1491.13968	0.35457
1489.08009	0.33420
1487.02051	0.31264
1484.96092	0.29442
1482.90134	0.27943
1480.84175	0.26554
1478.78217	0.25283
1476.72258	0.24279
1474.66300	0.23548
1472.60341	0.22970
1470.54383	0.22317
1468.48424	0.21852
1466.42466	0.21757
1464.36507	0.21718
1462.30549	0.21564
1460.24590	0.21744
1458.18632	0.22618
1456.12673	0.23709
1454.06715	0.24486
1452.00756	0.25225
1449.94797	0.26028
1447.88839	0.26692
1445.82880	0.26974
1443.76922	0.26945
1441.70963	0.26724
1439.65005	0.26375
1437.59046	0.25883
1435.53088	0.24929
1433.47129	0.23765
1431.41171	0.22821
1429.35212	0.21985
1427.29254	0.21272
1425.23295	0.20843
1423.17337	0.20590
1421.11378	0.20573
1419.05420	0.20823
1416.99461	0.20979
1414.93503	0.21090
1412.87544	0.21284
1410.81586	0.21465
1408.75627	0.21543
1406.69669	0.21557
1404.63710	0.21431
1402.57752	0.21116
1400.51793	0.20816
1398.45834	0.20539
1396.39876	0.20270
1394.33917	0.20041
1392.27959	0.19780
1390.22000	0.19630
1388.16042	0.19621
1386.10083	0.19540
1384.04125	0.19375
1381.98166	0.19251
1379.92208	0.19145
1377.86249	0.19045
1375.80291	0.19010
1373.74332	0.18987
1371.68374	0.18875
1369.62415	0.18729
1367.56457	0.18462
1365.50498	0.18054
1363.44540	0.17572
1361.38581	0.16969
1359.32623	0.16381
1357.26664	0.15961
1355.20706	0.15674
1353.14747	0.15468
1351.08789	0.15343
1349.02830	0.15296
1346.96872	0.15305
1344.90913	0.15364
1342.84954	0.15476
1340.78996	0.15662
1338.73037	0.15817
1336.67079	0.15848
1334.61120	0.15806
1332.55162	0.15710
1330.49203	0.15546
1328.43245	0.15316
1326.37286	0.15039
1324.31328	0.14737
1322.25369	0.14458
1320.19411	0.14251
1318.13452	0.14089
1316.07494	0.13968
1314.01535	0.13916
1311.95577	0.13887
1309.89618	0.13850
1307.83660	0.13818
1305.77701	0.13784
1303.71743	0.13752
1301.65784	0.13715
1299.59826	0.13672
1297.53867	0.13637
1295.47909	0.13619
1293.41950	0.13632
1291.35991	0.13690
1289.30033	0.13793
1287.24074	0.13927
1285.18116	0.14085
1283.12157	0.14280
1281.06199	0.14530
1279.00240	0.14865
1276.94282	0.15312
1274.88323	0.15864
1272.82365	0.16500
1270.76406	0.17170
1268.70448	0.17793
1266.64489	0.18304
1264.58531	0.18667
1262.52572	0.18891
1260.46614	0.19008
1258.40655	0.19057
1256.34697	0.19107
1254.28738	0.19205
1252.22780	0.19363
1250.16821	0.19587
1248.10863	0.19880
1246.04904	0.20238
1243.98946	0.20654
1241.92987	0.21126
1239.87029	0.21650
1237.81070	0.22209
1235.75111	0.22770
1233.69153	0.23278
1231.63194	0.23654
1229.57236	0.23844
1227.51277	0.23832
1225.45319	0.23627
1223.39360	0.23260
1221.33402	0.22774
1219.27443	0.22194
1217.21485	0.21520
1215.15526	0.20741
1213.09568	0.19861
1211.03609	0.18917
1208.97651	0.17952
1206.91692	0.17001
1204.85734	0.16085
1202.79775	0.15224
1200.73817	0.14437
1198.67858	0.13736
1196.61900	0.13142
1194.55941	0.12655
1192.49983	0.12256
1190.44024	0.11935
1188.38066	0.11679
1186.32107	0.11487
1184.26149	0.11378
1182.20190	0.11367
1180.14231	0.11494
1178.08273	0.11807
1176.02314	0.12275
1173.96356	0.12802
1171.90397	0.13280
1169.84439	0.13637
1167.78480	0.13860
1165.72522	0.13972
1163.66563	0.13981
1161.60605	0.13888
1159.54646	0.13693
1157.48688	0.13399
1155.42729	0.13024
1153.36771	0.12591
1151.30812	0.12103
1149.24854	0.11577
1147.18895	0.11061
1145.12937	0.10606
1143.06978	0.10225
1141.01020	0.09896
1138.95061	0.09609
1136.89103	0.09372
1134.83144	0.09167
1132.77186	0.08976
1130.71227	0.08817
1128.65268	0.08695
1126.59310	0.08593
1124.53351	0.08504
1122.47393	0.08437
1120.41434	0.08384
1118.35476	0.08345
1116.29517	0.08320
1114.23559	0.08305
1112.17600	0.08308
1110.11642	0.08346
1108.05683	0.08426
1105.99725	0.08518
1103.93766	0.08581
1101.87808	0.08591
1099.81849	0.08555
1097.75891	0.08519
1095.69932	0.08520
1093.63974	0.08575
1091.58015	0.08702
1089.52057	0.08906
1087.46098	0.09165
1085.40140	0.09465
1083.34181	0.09804
1081.28223	0.10173
1079.22264	0.10560
1077.16306	0.10940
1075.10347	0.11278
1073.04388	0.11557
1070.98430	0.11767
1068.92471	0.11900
1066.86513	0.11956
1064.80554	0.11952
1062.74596	0.11893
1060.68637	0.11781
1058.62679	0.11637
1056.56720	0.11465
1054.50762	0.11270
1052.44803	0.11067
1050.38845	0.10879
1048.32886	0.10725
1046.26928	0.10588
1044.20969	0.10438
1042.15011	0.10267
1040.09052	0.10069
1038.03094	0.09837
1035.97135	0.09582
1033.91177	0.09319
1031.85218	0.09065
1029.79260	0.08828
1027.73301	0.08600
1025.67343	0.08401
1023.61384	0.08279
1021.55425	0.08268
1019.49467	0.08369
1017.43508	0.08542
1015.37550	0.08716
1013.31591	0.08823
1011.25633	0.08842
1009.19674	0.08823
1007.13716	0.08831
1005.07757	0.08885
1003.01799	0.08967
1000.95840	0.09035
998.89882	0.09040
996.83923	0.08942
994.77965	0.08716
992.72006	0.08364
990.66048	0.07935
988.60089	0.07532
986.54131	0.07269
984.48172	0.07198
982.42214	0.07302
980.36255	0.07510
978.30297	0.07715
976.24338	0.07823
974.18380	0.07784
972.12421	0.07606
970.06463	0.07333
968.00504	0.07033
965.94545	0.06770
963.88587	0.06576
961.82628	0.06429
959.76670	0.06303
957.70711	0.06188
955.64753	0.06085
953.58794	0.05997
951.52836	0.05916
949.46877	0.05837
947.40919	0.05769
945.34960	0.05714
943.29002	0.05665
941.23043	0.05616
939.17085	0.05583
937.11126	0.05585
935.05168	0.05615
932.99209	0.05654
930.93251	0.05681
928.87292	0.05668
926.81334	0.05599
924.75375	0.05488
922.69417	0.05348
920.63458	0.05187
918.57500	0.05019
916.51541	0.04864
914.45582	0.04736
912.39624	0.04633
910.33665	0.04550
908.27707	0.04487
906.21748	0.04447
904.15790	0.04432
902.09831	0.04436
900.03873	0.04435
897.97914	0.04433
895.91956	0.04427
893.85997	0.04403
891.80039	0.04365
889.74080	0.04337
887.68122	0.04321
885.62163	0.04310
883.56205	0.04302
881.50246	0.04290
879.44288	0.04277
877.38329	0.04268
875.32371	0.04260
873.26412	0.04251
871.20454	0.04244
869.14495	0.04243
867.08537	0.04259
865.02578	0.04306
862.96620	0.04395
860.90661	0.04514
858.84702	0.04666
856.78744	0.04847
854.72785	0.05013
852.66827	0.05127
850.60868	0.05173
848.54910	0.05158
846.48951	0.05106
844.42993	0.05062
842.37034	0.05069
840.31076	0.05140
838.25117	0.05249
836.19159	0.05368
834.13200	0.05497
832.07242	0.05631
830.01283	0.05733
827.95325	0.05786
825.89366	0.05798
823.83408	0.05768
821.77449	0.05712
819.71491	0.05677
817.65532	0.05690
815.59574	0.05732
813.53615	0.05773
811.47657	0.05804
809.41698	0.05840
807.35740	0.05882
805.29781	0.05917
803.23822	0.05942
801.17864	0.05953
799.11905	0.05955
797.05947	0.05972
794.99988	0.06025
792.94030	0.06103
790.88071	0.06186
788.82113	0.06289
786.76154	0.06418
784.70196	0.06548
782.64237	0.06662
780.58279	0.06765
778.52320	0.06878
776.46362	0.07011
774.40403	0.07161
772.34445	0.07319
770.28486	0.07470
768.22528	0.07604
766.16569	0.07722
764.10611	0.07825
762.04652	0.07914
759.98694	0.07995
757.92735	0.08082
755.86777	0.08185
753.80818	0.08300
751.74859	0.08426
749.68901	0.08579
747.62942	0.08764
745.56984	0.08968
743.51025	0.09182
741.45067	0.09397
739.39108	0.09613
737.33150	0.09832
735.27191	0.10062
733.21233	0.10304
731.15274	0.10549
729.09316	0.10787
727.03357	0.11027
724.97399	0.11270
722.91440	0.11488
720.85482	0.11665
718.79523	0.11911
716.73565	0.12071
714.67606	0.12223
712.61648	0.12389
710.55689	0.12579
708.49731	0.12794
706.43772	0.13008
704.37814	0.13219
702.31855	0.13427
700.25897	0.13617
698.19938	0.13769
696.13979	0.13875
694.08021	0.13967
692.02062	0.14071
689.96104	0.14173
687.90145	0.14243
685.84187	0.14285
683.78228	0.14329
681.72270	0.14364
679.66311	0.14368
677.60353	0.14353
675.54394	0.14336
673.48436	0.14298
671.42477	0.14588
669.36519	0.15160
667.30560	0.13751
665.24602	0.14398
663.18643	0.14496
661.12685	0.14460
659.06726	0.14514
657.00768	0.14590
654.94809	0.14647
652.88851	0.14702
650.82892	0.14768
648.76934	0.14798
646.70975	0.14849
644.65016	0.14874
642.59058	0.14879
640.53099	0.14882
638.47141	0.14897
636.41182	0.14929
634.35224	0.14967
632.29265	0.14989
630.23307	0.15006
628.17348	0.15030
626.11390	0.15048
624.05431	0.15040
621.99473	0.15033
619.93514	0.15042
617.87556	0.15061
615.81597	0.15083
613.75639	0.15107
611.69680	0.15127
609.63722	0.15116
607.57763	0.15048
605.51805	0.14937
603.45846	0.14814
601.39888	0.14677
599.33929	0.14497
597.27971	0.14311
595.22012	0.14173
593.16054	0.14085
591.10095	0.14028
589.04136	0.13965
586.98178	0.13898
584.92219	0.13854
582.86261	0.13833
580.80302	0.13804
578.74344	0.13770
576.68385	0.13759
574.62427	0.13757
572.56468	0.13775
570.50510	0.13832
568.44551	0.13903
566.38593	0.13986
564.32634	0.14112
562.26676	0.14297
560.20717	0.14534
558.14759	0.14814
556.08800	0.15128
554.02842	0.15440
551.96883	0.15698
549.90925	0.15876
547.84966	0.15952
545.79008	0.15939
543.73049	0.15882
541.67091	0.15794
539.61132	0.15664
537.55173	0.15508
535.49215	0.15352
533.43256	0.15211
531.37298	0.15083
529.31339	0.14937
527.25381	0.14789
525.19422	0.14640
523.13464	0.14491
521.07505	0.14381
519.01547	0.14314
516.95588	0.14267
514.89630	0.14206
512.83671	0.14106
510.77713	0.13983
508.71754	0.13881
506.65796	0.13804
504.59837	0.13728
502.53879	0.13638
500.47920	0.13528
498.41962	0.13434
496.36003	0.13363
494.30045	0.13309
492.24086	0.13282
490.18128	0.13255
488.12169	0.13196
486.06211	0.13118
484.00252	0.13040
481.94293	0.12948
479.88335	0.12832
477.82376	0.12685
475.76418	0.12546
473.70459	0.12454
471.64501	0.12353
469.58542	0.12221
467.52584	0.12106
465.46625	0.12017
463.40667	0.11943
461.34708	0.11857
459.28750	0.11790
457.22791	0.11726
455.16833	0.11642
453.10874	0.11580
451.04916	0.11523
448.98957	0.11473
446.92999	0.11431
444.87040	0.11386
442.81082	0.11369
440.75123	0.11359
438.69165	0.11334
436.63206	0.11309
434.57248	0.11296
432.51289	0.11325
430.45330	0.11420
428.39372	0.11553
426.33413	0.11650
424.27455	0.11666
422.21496	0.11645
420.15538	0.11637
418.09579	0.11518
416.03621	0.11323
413.97662	0.11201
411.91704	0.11094
409.85745	0.10951
407.79787	0.10798
405.73828	0.10705
403.67870	0.10697
401.61911	0.10672
399.55953	0.10549
