3997.65486	0.00205
3995.59527	0.00228
3993.53569	0.00250
3991.47610	0.00273
3989.41652	0.00293
3987.35693	0.00292
3985.29735	0.00274
3983.23776	0.00255
3981.17817	0.00234
3979.11859	0.00197
3977.05900	0.00141
3974.99942	0.00117
3972.93983	0.00195
3970.88025	0.00322
3968.82066	0.00353
3966.76108	0.00291
3964.70149	0.00263
3962.64191	0.00290
3960.58232	0.00295
3958.52274	0.00290
3956.46315	0.00285
3954.40357	0.00244
3952.34398	0.00194
3950.28440	0.00191
3948.22481	0.00239
3946.16523	0.00276
3944.10564	0.00259
3942.04606	0.00234
3939.98647	0.00257
3937.92689	0.00301
3935.86730	0.00311
3933.80772	0.00308
3931.74813	0.00320
3929.68855	0.00316
3927.62896	0.00313
3925.56937	0.00335
3923.50979	0.00342
3921.45020	0.00318
3919.39062	0.00285
3917.33103	0.00269
3915.27145	0.00246
3913.21186	0.00196
3911.15228	0.00187
3909.09269	0.00250
3907.03311	0.00327
3904.97352	0.00372
3902.91394	0.00365
3900.85435	0.00341
3898.79477	0.00343
3896.73518	0.00324
3894.67560	0.00283
3892.61601	0.00294
3890.55643	0.00324
3888.49684	0.00279
3886.43726	0.00205
3884.37767	0.00188
3882.31809	0.00256
3880.25850	0.00366
3878.19892	0.00437
3876.13933	0.00474
3874.07974	0.00494
3872.02016	0.00462
3869.96057	0.00386
3867.90099	0.00308
3865.84140	0.00260
3863.78182	0.00278
3861.72223	0.00340
3859.66265	0.00364
3857.60306	0.00329
3855.54348	0.00268
3853.48389	0.00233
3851.42431	0.00272
3849.36472	0.00316
3847.30514	0.00296
3845.24555	0.00281
3843.18597	0.00341
3841.12638	0.00395
3839.06680	0.00339
3837.00721	0.00220
3834.94763	0.00134
3832.88804	0.00067
3830.82846	0.00017
3828.76887	0.00045
3826.70929	0.00146
3824.64970	0.00226
3822.59012	0.00237
3820.53053	0.00242
3818.47094	0.00280
3816.41136	0.00313
3814.35177	0.00329
3812.29219	0.00327
3810.23260	0.00311
3808.17302	0.00292
3806.11343	0.00248
3804.05385	0.00196
3801.99426	0.00196
3799.93468	0.00210
3797.87509	0.00167
3795.81551	0.00113
3793.75592	0.00146
3791.69634	0.00255
3789.63675	0.00318
3787.57717	0.00288
3785.51758	0.00241
3783.45800	0.00239
3781.39841	0.00249
3779.33883	0.00232
3777.27924	0.00185
3775.21966	0.00130
3773.16007	0.00120
3771.10049	0.00169
3769.04090	0.00204
3766.98132	0.00220
3764.92173	0.00271
3762.86214	0.00340
3760.80256	0.00385
3758.74297	0.00382
3756.68339	0.00353
3754.62380	0.00372
3752.56422	0.00454
3750.50463	0.00485
3748.44505	0.00414
3746.38546	0.00358
3744.32588	0.00357
3742.26629	0.00371
3740.20671	0.00392
3738.14712	0.00413
3736.08754	0.00383
3734.02795	0.00297
3731.96837	0.00239
3729.90878	0.00235
3727.84920	0.00252
3725.78961	0.00259
3723.73003	0.00219
3721.67044	0.00173
3719.61086	0.00179
3717.55127	0.00239
3715.49169	0.00327
3713.43210	0.00413
3711.37251	0.00459
3709.31293	0.00450
3707.25334	0.00396
3705.19376	0.00362
3703.13417	0.00375
3701.07459	0.00385
3699.01500	0.00352
3696.95542	0.00308
3694.89583	0.00308
3692.83625	0.00386
3690.77666	0.00484
3688.71708	0.00514
3686.65749	0.00487
3684.59791	0.00462
3682.53832	0.00438
3680.47874	0.00410
3678.41915	0.00407
3676.35957	0.00436
3674.29998	0.00498
3672.24040	0.00557
3670.18081	0.00574
3668.12123	0.00560
3666.06164	0.00556
3664.00206	0.00557
3661.94247	0.00552
3659.88289	0.00584
3657.82330	0.00654
3655.76371	0.00672
3653.70413	0.00637
3651.64454	0.00660
3649.58496	0.00763
3647.52537	0.00855
3645.46579	0.00866
3643.40620	0.00841
3641.34662	0.00842
3639.28703	0.00901
3637.22745	0.01011
3635.16786	0.01115
3633.10828	0.01160
3631.04869	0.01147
3628.98911	0.01134
3626.92952	0.01218
3624.86994	0.01374
3622.81035	0.01477
3620.75077	0.01455
3618.69118	0.01373
3616.63160	0.01362
3614.57201	0.01440
3612.51243	0.01558
3610.45284	0.01648
3608.39326	0.01650
3606.33367	0.01629
3604.27408	0.01650
3602.21450	0.01695
3600.15491	0.01762
3598.09533	0.01844
3596.03574	0.01877
3593.97616	0.01834
3591.91657	0.01794
3589.85699	0.01868
3587.79740	0.02017
3585.73782	0.02094
3583.67823	0.02088
3581.61865	0.02108
3579.55906	0.02176
3577.49948	0.02258
3575.43989	0.02337
3573.38031	0.02412
3571.32072	0.02496
3569.26114	0.02601
3567.20155	0.02679
3565.14197	0.02697
3563.08238	0.02714
3561.02280	0.02730
3558.96321	0.02702
3556.90363	0.02653
3554.84404	0.02616
3552.78446	0.02646
3550.72487	0.02796
3548.66528	0.03004
3546.60570	0.03170
3544.54611	0.03251
3542.48653	0.03239
3540.42694	0.03187
3538.36736	0.03193
3536.30777	0.03280
3534.24819	0.03390
3532.18860	0.03456
3530.12902	0.03469
3528.06943	0.03482
3526.00985	0.03539
3523.95026	0.03620
3521.89068	0.03682
3519.83109	0.03716
3517.77151	0.03756
3515.71192	0.03817
3513.65234	0.03877
3511.59275	0.03929
3509.53317	0.03964
3507.47358	0.03981
3505.41400	0.04008
3503.35441	0.04043
3501.29483	0.04062
3499.23524	0.04082
3497.17565	0.04108
3495.11607	0.04127
3493.05648	0.04162
3490.99690	0.04199
3488.93731	0.04206
3486.87773	0.04232
3484.81814	0.04290
3482.75856	0.04307
3480.69897	0.04298
3478.63939	0.04317
3476.57980	0.04318
3474.52022	0.04313
3472.46063	0.04383
3470.40105	0.04484
3468.34146	0.04530
3466.28188	0.04516
3464.22229	0.04509
3462.16271	0.04554
3460.10312	0.04609
3458.04354	0.04640
3455.98395	0.04676
3453.92437	0.04739
3451.86478	0.04777
3449.80520	0.04787
3447.74561	0.04818
3445.68603	0.04839
3443.62644	0.04831
3441.56685	0.04827
3439.50727	0.04843
3437.44768	0.04880
3435.38810	0.04925
3433.32851	0.04955
3431.26893	0.04993
3429.20934	0.05052
3427.14976	0.05088
3425.09017	0.05090
3423.03059	0.05126
3420.97100	0.05228
3418.91142	0.05302
3416.85183	0.05287
3414.79225	0.05290
3412.73266	0.05371
3410.67308	0.05463
3408.61349	0.05526
3406.55391	0.05560
3404.49432	0.05578
3402.43474	0.05630
3400.37515	0.05709
3398.31557	0.05759
3396.25598	0.05809
3394.19640	0.05875
3392.13681	0.05939
3390.07723	0.06012
3388.01764	0.06069
3385.95805	0.06121
3383.89847	0.06197
3381.83888	0.06276
3379.77930	0.06339
3377.71971	0.06366
3375.66013	0.06369
3373.60054	0.06395
3371.54096	0.06455
3369.48137	0.06517
3367.42179	0.06583
3365.36220	0.06700
3363.30262	0.06824
3361.24303	0.06905
3359.18345	0.06993
3357.12386	0.07113
3355.06428	0.07220
3353.00469	0.07314
3350.94511	0.07418
3348.88552	0.07514
3346.82594	0.07607
3344.76635	0.07746
3342.70677	0.07905
3340.64718	0.08030
3338.58760	0.08145
3336.52801	0.08299
3334.46842	0.08480
3332.40884	0.08680
3330.34925	0.08884
3328.28967	0.09049
3326.23008	0.09215
3324.17050	0.09467
3322.11091	0.09748
3320.05133	0.09933
3317.99174	0.10067
3315.93216	0.10278
3313.87257	0.10555
3311.81299	0.10808
3309.75340	0.11018
3307.69382	0.11244
3305.63423	0.11515
3303.57465	0.11789
3301.51506	0.12054
3299.45548	0.12343
3297.39589	0.12625
3295.33631	0.12881
3293.27672	0.13140
3291.21714	0.13389
3289.15755	0.13612
3287.09797	0.13838
3285.03838	0.14070
3282.97880	0.14251
3280.91921	0.14354
3278.85962	0.14387
3276.80004	0.14377
3274.74045	0.14341
3272.68087	0.14271
3270.62128	0.14166
3268.56170	0.14014
3266.50211	0.13812
3264.44253	0.13594
3262.38294	0.13369
3260.32336	0.13113
3258.26377	0.12829
3256.20419	0.12573
3254.14460	0.12347
3252.08502	0.12103
3250.02543	0.11846
3247.96585	0.11616
3245.90626	0.11401
3243.84668	0.11175
3241.78709	0.10923
3239.72751	0.10650
3237.66792	0.10412
3235.60834	0.10233
3233.54875	0.10083
3231.48917	0.09924
3229.42958	0.09726
3227.36999	0.09512
3225.31041	0.09342
3223.25082	0.09195
3221.19124	0.09042
3219.13165	0.08903
3217.07207	0.08764
3215.01248	0.08626
3212.95290	0.08509
3210.89331	0.08369
3208.83373	0.08179
3206.77414	0.07983
3204.71456	0.07830
3202.65497	0.07724
3200.59539	0.07622
3198.53580	0.07502
3196.47622	0.07356
3194.41663	0.07152
3192.35705	0.06941
3190.29746	0.06811
3188.23788	0.06732
3186.17829	0.06615
3184.11871	0.06465
3182.05912	0.06361
3179.99954	0.06260
3177.93995	0.06092
3175.88037	0.05915
3173.82078	0.05785
3171.76119	0.05663
3169.70161	0.05530
3167.64202	0.05441
3165.58244	0.05413
3163.52285	0.05362
3161.46327	0.05230
3159.40368	0.05073
3157.34410	0.04954
3155.28451	0.04864
3153.22493	0.04773
3151.16534	0.04680
3149.10576	0.04614
3147.04617	0.04581
3144.98659	0.04529
3142.92700	0.04450
3140.86742	0.04377
3138.80783	0.04312
3136.74825	0.04258
3134.68866	0.04220
3132.62908	0.04189
3130.56949	0.04173
3128.50991	0.04180
3126.45032	0.04192
3124.39074	0.04222
3122.33115	0.04270
3120.27156	0.04289
3118.21198	0.04275
3116.15239	0.04279
3114.09281	0.04311
3112.03322	0.04346
3109.97364	0.04357
3107.91405	0.04363
3105.85447	0.04401
3103.79488	0.04454
3101.73530	0.04506
3099.67571	0.04555
3097.61613	0.04604
3095.55654	0.04672
3093.49696	0.04759
3091.43737	0.04816
3089.37779	0.04822
3087.31820	0.04818
3085.25862	0.04827
3083.19903	0.04851
3081.13945	0.04900
3079.07986	0.04930
3077.02028	0.04916
3074.96069	0.04890
3072.90111	0.04870
3070.84152	0.04860
3068.78194	0.04857
3066.72235	0.04796
3064.66276	0.04677
3062.60318	0.04599
3060.54359	0.04569
3058.48401	0.04514
3056.42442	0.04429
3054.36484	0.04348
3052.30525	0.04258
3050.24567	0.04131
3048.18608	0.04016
3046.12650	0.03962
3044.06691	0.03911
3042.00733	0.03801
3039.94774	0.03669
3037.88816	0.03583
3035.82857	0.03536
3033.76899	0.03475
3031.70940	0.03380
3029.64982	0.03270
3027.59023	0.03184
3025.53065	0.03134
3023.47106	0.03091
3021.41148	0.03040
3019.35189	0.02986
3017.29231	0.02923
3015.23272	0.02876
3013.17313	0.02866
3011.11355	0.02852
3009.05396	0.02817
3006.99438	0.02809
3004.93479	0.02830
3002.87521	0.02850
3000.81562	0.02888
2998.75604	0.02962
2996.69645	0.03038
2994.63687	0.03107
2992.57728	0.03199
2990.51770	0.03286
2988.45811	0.03342
2986.39853	0.03377
2984.33894	0.03401
2982.27936	0.03419
2980.21977	0.03418
2978.16019	0.03402
2976.10060	0.03418
2974.04102	0.03472
2971.98143	0.03508
2969.92185	0.03500
2967.86226	0.03471
2965.80268	0.03427
2963.74309	0.03356
2961.68351	0.03273
2959.62392	0.03207
2957.56433	0.03157
2955.50475	0.03104
2953.44516	0.03077
2951.38558	0.03106
2949.32599	0.03168
2947.26641	0.03243
2945.20682	0.03325
2943.14724	0.03417
2941.08765	0.03507
2939.02807	0.03567
2936.96848	0.03588
2934.90890	0.03613
2932.84931	0.03678
2930.78973	0.03714
2928.73014	0.03650
2926.67056	0.03531
2924.61097	0.03428
2922.55139	0.03338
2920.49180	0.03229
2918.43222	0.03112
2916.37263	0.03021
2914.31305	0.02944
2912.25346	0.02832
2910.19388	0.02695
2908.13429	0.02598
2906.07471	0.02566
2904.01512	0.02555
2901.95553	0.02519
2899.89595	0.02452
2897.83636	0.02386
2895.77678	0.02362
2893.71719	0.02368
2891.65761	0.02363
2889.59802	0.02342
2887.53844	0.02316
2885.47885	0.02309
2883.41927	0.02336
2881.35968	0.02375
2879.30010	0.02395
2877.24051	0.02395
2875.18093	0.02378
2873.12134	0.02330
2871.06176	0.02265
2869.00217	0.02212
2866.94259	0.02135
2864.88300	0.02040
2862.82342	0.01997
2860.76383	0.01984
2858.70425	0.01951
2856.64466	0.01914
2854.58508	0.01894
2852.52549	0.01896
2850.46590	0.01892
2848.40632	0.01842
2846.34673	0.01766
2844.28715	0.01706
2842.22756	0.01659
2840.16798	0.01619
2838.10839	0.01584
2836.04881	0.01563
2833.98922	0.01557
2831.92964	0.01559
2829.87005	0.01562
2827.81047	0.01563
2825.75088	0.01560
2823.69130	0.01560
2821.63171	0.01569
2819.57213	0.01567
2817.51254	0.01539
2815.45296	0.01508
2813.39337	0.01480
2811.33379	0.01454
2809.27420	0.01452
2807.21462	0.01465
2805.15503	0.01473
2803.09545	0.01461
2801.03586	0.01433
2798.97628	0.01426
2796.91669	0.01424
2794.85710	0.01391
2792.79752	0.01372
2790.73793	0.01399
2788.67835	0.01424
2786.61876	0.01406
2784.55918	0.01348
2782.49959	0.01295
2780.44001	0.01269
2778.38042	0.01250
2776.32084	0.01254
2774.26125	0.01268
2772.20167	0.01257
2770.14208	0.01244
2768.08250	0.01231
2766.02291	0.01199
2763.96333	0.01168
2761.90374	0.01143
2759.84416	0.01124
2757.78457	0.01123
2755.72499	0.01118
2753.66540	0.01079
2751.60582	0.01032
2749.54623	0.01020
2747.48665	0.01036
2745.42706	0.01050
2743.36747	0.01045
2741.30789	0.01010
2739.24830	0.00971
2737.18872	0.00967
2735.12913	0.00970
2733.06955	0.00953
2731.00996	0.00932
2728.95038	0.00928
2726.89079	0.00928
2724.83121	0.00905
2722.77162	0.00873
2720.71204	0.00863
2718.65245	0.00870
2716.59287	0.00874
2714.53328	0.00873
2712.47370	0.00864
2710.41411	0.00838
2708.35453	0.00813
2706.29494	0.00815
2704.23536	0.00838
2702.17577	0.00845
2700.11619	0.00823
2698.05660	0.00787
2695.99702	0.00775
2693.93743	0.00787
2691.87785	0.00783
2689.81826	0.00773
2687.75867	0.00770
2685.69909	0.00764
2683.63950	0.00758
2681.57992	0.00755
2679.52033	0.00768
2677.46075	0.00797
2675.40116	0.00799
2673.34158	0.00768
2671.28199	0.00744
2669.22241	0.00737
2667.16282	0.00727
2665.10324	0.00707
2663.04365	0.00715
2660.98407	0.00747
2658.92448	0.00757
2656.86490	0.00746
2654.80531	0.00738
2652.74573	0.00733
2650.68614	0.00739
2648.62656	0.00757
2646.56697	0.00766
2644.50739	0.00758
2642.44780	0.00760
2640.38822	0.00786
2638.32863	0.00809
2636.26904	0.00810
2634.20946	0.00785
2632.14987	0.00733
2630.09029	0.00709
2628.03070	0.00730
2625.97112	0.00741
2623.91153	0.00727
2621.85195	0.00703
2619.79236	0.00704
2617.73278	0.00722
2615.67319	0.00698
2613.61361	0.00656
2611.55402	0.00659
2609.49444	0.00695
2607.43485	0.00733
2605.37527	0.00753
2603.31568	0.00737
2601.25610	0.00702
2599.19651	0.00684
2597.13693	0.00663
2595.07734	0.00610
2593.01776	0.00563
2590.95817	0.00562
2588.89859	0.00575
2586.83900	0.00563
2584.77942	0.00548
2582.71983	0.00553
2580.66024	0.00563
2578.60066	0.00568
2576.54107	0.00559
2574.48149	0.00521
2572.42190	0.00472
2570.36232	0.00448
2568.30273	0.00453
2566.24315	0.00476
2564.18356	0.00484
2562.12398	0.00467
2560.06439	0.00459
2558.00481	0.00473
2555.94522	0.00491
2553.88564	0.00492
2551.82605	0.00476
2549.76647	0.00459
2547.70688	0.00460
2545.64730	0.00472
2543.58771	0.00463
2541.52813	0.00450
2539.46854	0.00436
2537.40896	0.00402
2535.34937	0.00404
2533.28979	0.00439
2531.23020	0.00447
2529.17062	0.00429
2527.11103	0.00416
2525.05144	0.00431
2522.99186	0.00456
2520.93227	0.00472
2518.87269	0.00478
2516.81310	0.00470
2514.75352	0.00441
2512.69393	0.00412
2510.63435	0.00405
2508.57476	0.00408
2506.51518	0.00407
2504.45559	0.00409
2502.39601	0.00416
2500.33642	0.00419
2498.27684	0.00412
2496.21725	0.00403
2494.15767	0.00419
2492.09808	0.00459
2490.03850	0.00463
2487.97891	0.00438
2485.91933	0.00431
2483.85974	0.00427
2481.80016	0.00408
2479.74057	0.00394
2477.68099	0.00403
2475.62140	0.00415
2473.56181	0.00395
2471.50223	0.00376
2469.44264	0.00400
2467.38306	0.00416
2465.32347	0.00385
2463.26389	0.00359
2461.20430	0.00369
2459.14472	0.00368
2457.08513	0.00354
2455.02555	0.00383
2452.96596	0.00428
2450.90638	0.00426
2448.84679	0.00397
2446.78721	0.00384
2444.72762	0.00386
2442.66804	0.00397
2440.60845	0.00410
2438.54887	0.00396
2436.48928	0.00365
2434.42970	0.00353
2432.37011	0.00359
2430.31053	0.00359
2428.25094	0.00337
2426.19136	0.00313
2424.13177	0.00308
2422.07219	0.00337
2420.01260	0.00369
2417.95301	0.00368
2415.89343	0.00356
2413.83384	0.00334
2411.77426	0.00307
2409.71467	0.00310
2407.65509	0.00334
2405.59550	0.00322
2403.53592	0.00283
2401.47633	0.00251
2399.41675	0.00190
2397.35716	0.00183
2395.29758	0.00199
2393.23799	0.00213
2391.17841	0.00238
2389.11882	0.00292
2387.05924	0.00353
2384.99965	0.00383
2382.94007	0.00366
2380.88048	0.00324
2378.82090	0.00289
2376.76131	0.00228
2374.70173	0.00260
2372.64214	0.00256
2370.58256	0.00144
2368.52297	0.00118
2366.46338	0.00072
2364.40380	0.00074
2362.34421	0.00124
2360.28463	0.00043
2358.22504	0.00090
2356.16546	0.00105
2354.10587	0.00162
2352.04629	0.00329
2349.98670	0.00242
2347.92712	0.00355
2345.86753	0.00390
2343.80795	0.00243
2341.74836	0.00372
2339.68878	0.00285
2337.62919	0.00206
2335.56961	0.00254
2333.51002	0.00144
2331.45044	0.00233
2329.39085	0.00231
2327.33127	0.00473
2325.27168	0.00601
2323.21210	0.00667
2321.15251	0.00608
2319.09293	0.00523
2317.03334	0.00528
2314.97376	0.00504
2312.91417	0.00512
2310.85458	0.00540
2308.79500	0.00548
2306.73541	0.00552
2304.67583	0.00514
2302.61624	0.00482
2300.55666	0.00494
2298.49707	0.00529
2296.43749	0.00497
2294.37790	0.00465
2292.31832	0.00473
2290.25873	0.00505
2288.19915	0.00525
2286.13956	0.00508
2284.07998	0.00457
2282.02039	0.00441
2279.96081	0.00449
2277.90122	0.00441
2275.84164	0.00423
2273.78205	0.00396
2271.72247	0.00374
2269.66288	0.00357
2267.60330	0.00364
2265.54371	0.00405
2263.48413	0.00430
2261.42454	0.00419
2259.36495	0.00429
2257.30537	0.00446
2255.24578	0.00427
2253.18620	0.00412
2251.12661	0.00416
2249.06703	0.00410
2247.00744	0.00452
2244.94786	0.00424
2242.88827	0.00318
2240.82869	0.00250
2238.76910	0.00249
2236.70952	0.00249
2234.64993	0.00275
2232.59035	0.00354
2230.53076	0.00398
2228.47118	0.00362
2226.41159	0.00302
2224.35201	0.00273
2222.29242	0.00275
2220.23284	0.00306
2218.17325	0.00341
2216.11367	0.00321
2214.05408	0.00272
2211.99450	0.00264
2209.93491	0.00306
2207.87533	0.00362
2205.81574	0.00377
2203.75615	0.00366
2201.69657	0.00349
2199.63698	0.00349
2197.57740	0.00413
2195.51781	0.00449
2193.45823	0.00391
2191.39864	0.00350
2189.33906	0.00390
2187.27947	0.00427
2185.21989	0.00393
2183.16030	0.00360
2181.10072	0.00384
2179.04113	0.00436
2176.98155	0.00483
2174.92196	0.00483
2172.86238	0.00404
2170.80279	0.00274
2168.74321	0.00241
2166.68362	0.00381
2164.62404	0.00557
2162.56445	0.00628
2160.50487	0.00456
2158.44528	0.00121
2156.38570	-0.00021
2154.32611	0.00050
2152.26652	0.00148
2150.20694	0.00220
2148.14735	0.00255
2146.08777	0.00237
2144.02818	0.00222
2141.96860	0.00285
2139.90901	0.00373
2137.84943	0.00340
2135.78984	0.00189
2133.73026	0.00104
2131.67067	0.00161
2129.61109	0.00281
2127.55150	0.00359
2125.49192	0.00359
2123.43233	0.00332
2121.37275	0.00325
2119.31316	0.00332
2117.25358	0.00335
2115.19399	0.00376
2113.13441	0.00476
2111.07482	0.00551
2109.01524	0.00557
2106.95565	0.00498
2104.89607	0.00422
2102.83648	0.00441
2100.77690	0.00510
2098.71731	0.00489
2096.65772	0.00362
2094.59814	0.00242
2092.53855	0.00257
2090.47897	0.00367
2088.41938	0.00429
2086.35980	0.00388
2084.30021	0.00307
2082.24063	0.00271
2080.18104	0.00265
2078.12146	0.00256
2076.06187	0.00273
2074.00229	0.00277
2071.94270	0.00236
2069.88312	0.00228
2067.82353	0.00282
2065.76395	0.00338
2063.70436	0.00357
2061.64478	0.00348
2059.58519	0.00368
2057.52561	0.00428
2055.46602	0.00429
2053.40644	0.00405
2051.34685	0.00432
2049.28727	0.00424
2047.22768	0.00361
2045.16810	0.00378
2043.10851	0.00443
2041.04892	0.00410
2038.98934	0.00321
2036.92975	0.00291
2034.87017	0.00296
2032.81058	0.00297
2030.75100	0.00287
2028.69141	0.00228
2026.63183	0.00138
2024.57224	0.00078
2022.51266	0.00074
2020.45307	0.00156
2018.39349	0.00256
2016.33390	0.00248
2014.27432	0.00200
2012.21473	0.00266
2010.15515	0.00387
2008.09556	0.00404
2006.03598	0.00323
2003.97639	0.00257
2001.91681	0.00228
1999.85722	0.00206
1997.79764	0.00205
1995.73805	0.00226
1993.67847	0.00229
1991.61888	0.00206
1989.55929	0.00198
1987.49971	0.00226
1985.44012	0.00299
1983.38054	0.00421
1981.32095	0.00512
1979.26137	0.00510
1977.20178	0.00455
1975.14220	0.00355
1973.08261	0.00245
1971.02303	0.00218
1968.96344	0.00247
1966.90386	0.00245
1964.84427	0.00190
1962.78469	0.00131
1960.72510	0.00120
1958.66552	0.00150
1956.60593	0.00151
1954.54635	0.00132
1952.48676	0.00173
1950.42718	0.00240
1948.36759	0.00239
1946.30801	0.00183
1944.24842	0.00139
1942.18884	0.00110
1940.12925	0.00090
1938.06967	0.00101
1936.01008	0.00153
1933.95049	0.00214
1931.89091	0.00217
1929.83132	0.00168
1927.77174	0.00149
1925.71215	0.00188
1923.65257	0.00221
1921.59298	0.00211
1919.53340	0.00191
1917.47381	0.00203
1915.41423	0.00237
1913.35464	0.00246
1911.29506	0.00231
1909.23547	0.00216
1907.17589	0.00188
1905.11630	0.00150
1903.05672	0.00130
1900.99713	0.00138
1898.93755	0.00162
1896.87796	0.00174
1894.81838	0.00185
1892.75879	0.00195
1890.69921	0.00196
1888.63962	0.00197
1886.58004	0.00191
1884.52045	0.00179
1882.46086	0.00177
1880.40128	0.00193
1878.34169	0.00214
1876.28211	0.00224
1874.22252	0.00214
1872.16294	0.00211
1870.10335	0.00251
1868.04377	0.00306
1865.98418	0.00318
1863.92460	0.00294
1861.86501	0.00267
1859.80543	0.00255
1857.74584	0.00248
1855.68626	0.00227
1853.62667	0.00206
1851.56709	0.00213
1849.50750	0.00255
1847.44792	0.00302
1845.38833	0.00332
1843.32875	0.00337
1841.26916	0.00318
1839.20958	0.00288
1837.14999	0.00277
1835.09041	0.00289
1833.03082	0.00306
1830.97124	0.00317
1828.91165	0.00316
1826.85206	0.00304
1824.79248	0.00304
1822.73289	0.00306
1820.67331	0.00285
1818.61372	0.00260
1816.55414	0.00263
1814.49455	0.00293
1812.43497	0.00327
1810.37538	0.00344
1808.31580	0.00343
1806.25621	0.00339
1804.19663	0.00343
1802.13704	0.00354
1800.07746	0.00376
1798.01787	0.00401
1795.95829	0.00427
1793.89870	0.00445
1791.83912	0.00445
1789.77953	0.00423
1787.71995	0.00394
1785.66036	0.00385
1783.60078	0.00412
1781.54119	0.00456
1779.48161	0.00479
1777.42202	0.00472
1775.36243	0.00455
1773.30285	0.00450
1771.24326	0.00462
1769.18368	0.00483
1767.12409	0.00502
1765.06451	0.00522
1763.00492	0.00541
1760.94534	0.00542
1758.88575	0.00527
1756.82617	0.00526
1754.76658	0.00555
1752.70700	0.00601
1750.64741	0.00651
1748.58783	0.00689
1746.52824	0.00700
1744.46866	0.00697
1742.40907	0.00694
1740.34949	0.00688
1738.28990	0.00686
1736.23032	0.00720
1734.17073	0.00784
1732.11115	0.00824
1730.05156	0.00828
1727.99198	0.00836
1725.93239	0.00867
1723.87281	0.00920
1721.81322	0.00987
1719.75363	0.01079
1717.69405	0.01223
1715.63446	0.01389
1713.57488	0.01524
1711.51529	0.01678
1709.45571	0.01931
1707.39612	0.02355
1705.33654	0.02958
1703.27695	0.03598
1701.21737	0.04189
1699.15778	0.04679
1697.09820	0.04936
1695.03861	0.05030
1692.97903	0.05118
1690.91944	0.05270
1688.85986	0.05479
1686.80027	0.05725
1684.74069	0.06057
1682.68110	0.06436
1680.62152	0.06723
1678.56193	0.06964
1676.50235	0.07257
1674.44276	0.07609
1672.38318	0.07950
1670.32359	0.08312
1668.26401	0.08714
1666.20442	0.09063
1664.14483	0.09393
1662.08525	0.09769
1660.02566	0.10128
1657.96608	0.10419
1655.90649	0.10695
1653.84691	0.11055
1651.78732	0.11437
1649.72774	0.11677
1647.66815	0.11888
1645.60857	0.12145
1643.54898	0.12358
1641.48940	0.12537
1639.42981	0.12746
1637.37023	0.13057
1635.31064	0.13495
1633.25106	0.13925
1631.19147	0.14305
1629.13189	0.14748
1627.07230	0.15272
1625.01272	0.15791
1622.95313	0.16239
1620.89355	0.16515
1618.83396	0.16557
1616.77438	0.16340
1614.71479	0.15912
1612.65520	0.15375
1610.59562	0.14698
1608.53603	0.13840
1606.47645	0.12868
1604.41686	0.11879
1602.35728	0.10927
1600.29769	0.10072
1598.23811	0.09346
1596.17852	0.08719
1594.11894	0.08156
1592.05935	0.07665
1589.99977	0.07259
1587.94018	0.06944
1585.88060	0.06716
1583.82101	0.06575
1581.76143	0.06519
1579.70184	0.06540
1577.64226	0.06640
1575.58267	0.06821
1573.52309	0.07038
1571.46350	0.07294
1569.40392	0.07628
1567.34433	0.07979
1565.28475	0.08296
1563.22516	0.08588
1561.16558	0.08914
1559.10599	0.09402
1557.04640	0.09923
1554.98682	0.10285
1552.92723	0.10593
1550.86765	0.10914
1548.80806	0.11238
1546.74848	0.11560
1544.68889	0.11923
1542.62931	0.12343
1540.56972	0.12792
1538.51014	0.13167
1536.45055	0.13413
1534.39097	0.13662
1532.33138	0.13957
1530.27180	0.14205
1528.21221	0.14415
1526.15263	0.14632
1524.09304	0.14832
1522.03346	0.15010
1519.97387	0.15187
1517.91429	0.15382
1515.85470	0.15573
1513.79512	0.15690
1511.73553	0.15710
1509.67595	0.15640
1507.61636	0.15425
1505.55677	0.15073
1503.49719	0.14752
1501.43760	0.14451
1499.37802	0.14057
1497.31843	0.13519
1495.25885	0.12942
1493.19926	0.12445
1491.13968	0.11925
1489.08009	0.11272
1487.02051	0.10614
1484.96092	0.10068
1482.90134	0.09591
1480.84175	0.09140
1478.78217	0.08752
1476.72258	0.08445
1474.66300	0.08177
1472.60341	0.07919
1470.54383	0.07705
1468.48424	0.07575
1466.42466	0.07512
1464.36507	0.07496
1462.30549	0.07525
1460.24590	0.07616
1458.18632	0.07839
1456.12673	0.08188
1454.06715	0.08510
1452.00756	0.08779
1449.94797	0.09033
1447.88839	0.09238
1445.82880	0.09337
1443.76922	0.09338
1441.70963	0.09284
1439.65005	0.09177
1437.59046	0.08965
1435.53088	0.08641
1433.47129	0.08301
1431.41171	0.07983
1429.35212	0.07690
1427.29254	0.07467
1425.23295	0.07332
1423.17337	0.07278
1421.11378	0.07290
1419.05420	0.07352
1416.99461	0.07431
1414.93503	0.07502
1412.87544	0.07576
1410.81586	0.07648
1408.75627	0.07689
1406.69669	0.07686
1404.63710	0.07641
1402.57752	0.07557
1400.51793	0.07460
1398.45834	0.07360
1396.39876	0.07262
1394.33917	0.07184
1392.27959	0.07141
1390.22000	0.07120
1388.16042	0.07105
1386.10083	0.07092
1384.04125	0.07074
1381.98166	0.07046
1379.92208	0.07009
1377.86249	0.06977
1375.80291	0.06953
1373.74332	0.06927
1371.68374	0.06889
1369.62415	0.06831
1367.56457	0.06735
1365.50498	0.06591
1363.44540	0.06397
1361.38581	0.06175
1359.32623	0.05973
1357.26664	0.05817
1355.20706	0.05705
1353.14747	0.05632
1351.08789	0.05595
1349.02830	0.05590
1346.96872	0.05614
1344.90913	0.05666
1342.84954	0.05738
1340.78996	0.05820
1338.73037	0.05892
1336.67079	0.05930
1334.61120	0.05926
1332.55162	0.05885
1330.49203	0.05817
1328.43245	0.05733
1326.37286	0.05636
1324.31328	0.05522
1322.25369	0.05407
1320.19411	0.05312
1318.13452	0.05246
1316.07494	0.05207
1314.01535	0.05191
1311.95577	0.05188
1309.89618	0.05178
1307.83660	0.05161
1305.77701	0.05148
1303.71743	0.05139
1301.65784	0.05134
1299.59826	0.05138
1297.53867	0.05145
1295.47909	0.05151
1293.41950	0.05168
1291.35991	0.05202
1289.30033	0.05243
1287.24074	0.05292
1285.18116	0.05355
1283.12157	0.05434
1281.06199	0.05538
1279.00240	0.05672
1276.94282	0.05834
1274.88323	0.06021
1272.82365	0.06235
1270.76406	0.06465
1268.70448	0.06680
1266.64489	0.06854
1264.58531	0.06982
1262.52572	0.07068
1260.46614	0.07124
1258.40655	0.07167
1256.34697	0.07218
1254.28738	0.07285
1252.22780	0.07374
1250.16821	0.07488
1248.10863	0.07615
1246.04904	0.07756
1243.98946	0.07920
1241.92987	0.08100
1239.87029	0.08286
1237.81070	0.08479
1235.75111	0.08668
1233.69153	0.08841
1231.63194	0.08979
1229.57236	0.09058
1227.51277	0.09067
1225.45319	0.09003
1223.39360	0.08882
1221.33402	0.08722
1219.27443	0.08520
1217.21485	0.08276
1215.15526	0.07991
1213.09568	0.07671
1211.03609	0.07330
1208.97651	0.06983
1206.91692	0.06645
1204.85734	0.06320
1202.79775	0.05994
1200.73817	0.05678
1198.67858	0.05394
1196.61900	0.05152
1194.55941	0.04952
1192.49983	0.04791
1190.44024	0.04663
1188.38066	0.04563
1186.32107	0.04488
1184.26149	0.04450
1182.20190	0.04451
1180.14231	0.04495
1178.08273	0.04595
1176.02314	0.04749
1173.96356	0.04924
1171.90397	0.05089
1169.84439	0.05219
1167.78480	0.05311
1165.72522	0.05369
1163.66563	0.05391
1161.60605	0.05368
1159.54646	0.05310
1157.48688	0.05220
1155.42729	0.05089
1153.36771	0.04924
1151.30812	0.04744
1149.24854	0.04554
1147.18895	0.04364
1145.12937	0.04187
1143.06978	0.04035
1141.01020	0.03899
1138.95061	0.03778
1136.89103	0.03679
1134.83144	0.03595
1132.77186	0.03522
1130.71227	0.03469
1128.65268	0.03427
1126.59310	0.03385
1124.53351	0.03350
1122.47393	0.03327
1120.41434	0.03306
1118.35476	0.03283
1116.29517	0.03267
1114.23559	0.03260
1112.17600	0.03257
1110.11642	0.03260
1108.05683	0.03274
1105.99725	0.03296
1103.93766	0.03308
1101.87808	0.03305
1099.81849	0.03290
1097.75891	0.03275
1095.69932	0.03269
1093.63974	0.03283
1091.58015	0.03336
1089.52057	0.03428
1087.46098	0.03547
1085.40140	0.03693
1083.34181	0.03859
1081.28223	0.04021
1079.22264	0.04175
1077.16306	0.04332
1075.10347	0.04483
1073.04388	0.04597
1070.98430	0.04674
1068.92471	0.04730
1066.86513	0.04760
1064.80554	0.04762
1062.74596	0.04742
1060.68637	0.04706
1058.62679	0.04660
1056.56720	0.04614
1054.50762	0.04577
1052.44803	0.04536
1050.38845	0.04467
1048.32886	0.04379
1046.26928	0.04299
1044.20969	0.04227
1042.15011	0.04152
1040.09052	0.04067
1038.03094	0.03966
1035.97135	0.03855
1033.91177	0.03744
1031.85218	0.03643
1029.79260	0.03556
1027.73301	0.03470
1025.67343	0.03393
1023.61384	0.03355
1021.55425	0.03374
1019.49467	0.03439
1017.43508	0.03530
1015.37550	0.03616
1013.31591	0.03663
1011.25633	0.03655
1009.19674	0.03623
1007.13716	0.03604
1005.07757	0.03597
1003.01799	0.03600
1000.95840	0.03607
998.89882	0.03586
996.83923	0.03516
994.77965	0.03408
992.72006	0.03269
990.66048	0.03101
988.60089	0.02939
986.54131	0.02825
984.48172	0.02783
982.42214	0.02807
980.36255	0.02871
978.30297	0.02949
976.24338	0.03008
974.18380	0.03013
972.12421	0.02955
970.06463	0.02867
968.00504	0.02776
965.94545	0.02699
963.88587	0.02645
961.82628	0.02606
959.76670	0.02572
957.70711	0.02536
955.64753	0.02502
953.58794	0.02475
951.52836	0.02456
949.46877	0.02439
947.40919	0.02421
945.34960	0.02399
943.29002	0.02375
941.23043	0.02358
939.17085	0.02346
937.11126	0.02337
935.05168	0.02339
932.99209	0.02346
930.93251	0.02348
928.87292	0.02337
926.81334	0.02311
924.75375	0.02272
922.69417	0.02225
920.63458	0.02174
918.57500	0.02110
916.51541	0.02036
914.45582	0.01974
912.39624	0.01932
910.33665	0.01894
908.27707	0.01859
906.21748	0.01838
904.15790	0.01841
902.09831	0.01856
900.03873	0.01854
897.97914	0.01837
895.91956	0.01828
893.85997	0.01823
891.80039	0.01814
889.74080	0.01804
887.68122	0.01794
885.62163	0.01789
883.56205	0.01800
881.50246	0.01823
879.44288	0.01838
877.38329	0.01837
875.32371	0.01828
873.26412	0.01822
871.20454	0.01822
869.14495	0.01829
867.08537	0.01850
865.02578	0.01888
862.96620	0.01935
860.90661	0.01989
858.84702	0.02059
856.78744	0.02138
854.72785	0.02200
852.66827	0.02239
850.60868	0.02264
848.54910	0.02270
846.48951	0.02263
844.42993	0.02266
842.37034	0.02286
840.31076	0.02310
838.25117	0.02345
836.19159	0.02402
834.13200	0.02462
832.07242	0.02516
830.01283	0.02556
827.95325	0.02574
825.89366	0.02575
823.83408	0.02572
821.77449	0.02567
819.71491	0.02559
817.65532	0.02560
815.59574	0.02582
813.53615	0.02612
811.47657	0.02636
809.41698	0.02654
807.35740	0.02672
805.29781	0.02685
803.23822	0.02706
801.17864	0.02731
799.11905	0.02741
797.05947	0.02750
794.99988	0.02789
792.94030	0.02840
790.88071	0.02876
788.82113	0.02916
786.76154	0.02973
784.70196	0.03029
782.64237	0.03073
780.58279	0.03123
778.52320	0.03198
776.46362	0.03279
774.40403	0.03347
772.34445	0.03403
770.28486	0.03455
768.22528	0.03510
766.16569	0.03565
764.10611	0.03614
762.04652	0.03660
759.98694	0.03712
757.92735	0.03768
755.86777	0.03810
753.80818	0.03856
751.74859	0.03923
749.68901	0.04000
747.62942	0.04075
745.56984	0.04152
743.51025	0.04248
741.45067	0.04352
739.39108	0.04441
737.33150	0.04527
735.27191	0.04629
733.21233	0.04745
731.15274	0.04856
729.09316	0.04958
727.03357	0.05069
724.97399	0.05181
722.91440	0.05273
720.85482	0.05364
718.79523	0.05435
716.73565	0.05523
714.67606	0.05602
712.61648	0.05689
710.55689	0.05787
708.49731	0.05885
706.43772	0.05972
704.37814	0.06045
702.31855	0.06121
700.25897	0.06200
698.19938	0.06272
696.13979	0.06322
694.08021	0.06362
692.02062	0.06413
689.96104	0.06457
687.90145	0.06485
685.84187	0.06507
683.78228	0.06537
681.72270	0.06575
679.66311	0.06593
677.60353	0.06594
675.54394	0.06610
673.48436	0.06642
671.42477	0.06518
669.36519	0.06267
667.30560	0.06763
665.24602	0.06648
663.18643	0.06740
661.12685	0.06808
659.06726	0.06824
657.00768	0.06839
654.94809	0.06866
652.88851	0.06904
650.82892	0.06952
648.76934	0.07003
646.70975	0.07027
644.65016	0.07041
642.59058	0.07039
640.53099	0.07036
638.47141	0.07050
636.41182	0.07071
634.35224	0.07084
632.29265	0.07095
630.23307	0.07106
628.17348	0.07110
626.11390	0.07102
624.05431	0.07105
621.99473	0.07129
619.93514	0.07158
617.87556	0.07179
615.81597	0.07200
613.75639	0.07229
611.69680	0.07266
609.63722	0.07314
607.57763	0.07341
605.51805	0.07318
603.45846	0.07270
601.39888	0.07218
599.33929	0.07167
597.27971	0.07126
595.22012	0.07080
593.16054	0.07039
591.10095	0.07027
589.04136	0.07028
586.98178	0.07026
584.92219	0.07028
582.86261	0.07018
580.80302	0.07002
578.74344	0.07000
576.68385	0.07020
574.62427	0.07057
572.56468	0.07090
570.50510	0.07107
568.44551	0.07121
566.38593	0.07156
564.32634	0.07224
562.26676	0.07321
560.20717	0.07432
558.14759	0.07548
556.08800	0.07690
554.02842	0.07853
551.96883	0.07999
549.90925	0.08116
547.84966	0.08199
545.79008	0.08242
543.73049	0.08253
541.67091	0.08238
539.61132	0.08198
537.55173	0.08151
535.49215	0.08110
533.43256	0.08062
531.37298	0.08012
529.31339	0.07981
527.25381	0.07944
525.19422	0.07885
523.13464	0.07827
521.07505	0.07783
519.01547	0.07741
516.95588	0.07710
514.89630	0.07701
512.83671	0.07683
510.77713	0.07638
508.71754	0.07598
506.65796	0.07583
504.59837	0.07572
502.53879	0.07544
500.47920	0.07510
498.41962	0.07484
496.36003	0.07455
494.30045	0.07423
492.24086	0.07394
490.18128	0.07378
488.12169	0.07379
486.06211	0.07389
484.00252	0.07382
481.94293	0.07348
479.88335	0.07304
477.82376	0.07262
475.76418	0.07217
473.70459	0.07175
471.64501	0.07124
469.58542	0.07060
467.52584	0.07002
465.46625	0.06956
463.40667	0.06912
461.34708	0.06868
459.28750	0.06830
457.22791	0.06814
455.16833	0.06815
453.10874	0.06799
451.04916	0.06755
448.98957	0.06717
446.92999	0.06715
444.87040	0.06741
442.81082	0.06766
440.75123	0.06758
438.69165	0.06713
436.63206	0.06665
434.57248	0.06643
432.51289	0.06673
430.45330	0.06769
428.39372	0.06892
426.33413	0.06972
424.27455	0.06982
422.21496	0.06961
420.15538	0.06922
418.09579	0.06836
416.03621	0.06749
413.97662	0.06715
411.91704	0.06708
409.85745	0.06693
407.79787	0.06665
405.73828	0.06618
403.67870	0.06562
401.61911	0.06512
399.55953	0.06458
