3997.65486	0.01421
3995.59527	0.01459
3993.53569	0.01481
3991.47610	0.01483
3989.41652	0.01507
3987.35693	0.01559
3985.29735	0.01588
3983.23776	0.01570
3981.17817	0.01511
3979.11859	0.01410
3977.05900	0.01311
3974.99942	0.01268
3972.93983	0.01300
3970.88025	0.01408
3968.82066	0.01514
3966.76108	0.01552
3964.70149	0.01556
3962.64191	0.01564
3960.58232	0.01575
3958.52274	0.01598
3956.46315	0.01589
3954.40357	0.01495
3952.34398	0.01395
3950.28440	0.01395
3948.22481	0.01452
3946.16523	0.01457
3944.10564	0.01410
3942.04606	0.01383
3939.98647	0.01395
3937.92689	0.01428
3935.86730	0.01455
3933.80772	0.01457
3931.74813	0.01441
3929.68855	0.01428
3927.62896	0.01443
3925.56937	0.01447
3923.50979	0.01406
3921.45020	0.01362
3919.39062	0.01330
3917.33103	0.01284
3915.27145	0.01236
3913.21186	0.01230
3911.15228	0.01287
3909.09269	0.01347
3907.03311	0.01359
3904.97352	0.01354
3902.91394	0.01343
3900.85435	0.01298
3898.79477	0.01284
3896.73518	0.01333
3894.67560	0.01378
3892.61601	0.01392
3890.55643	0.01372
3888.49684	0.01298
3886.43726	0.01215
3884.37767	0.01181
3882.31809	0.01208
3880.25850	0.01293
3878.19892	0.01397
3876.13933	0.01448
3874.07974	0.01457
3872.02016	0.01476
3869.96057	0.01488
3867.90099	0.01434
3865.84140	0.01342
3863.78182	0.01324
3861.72223	0.01391
3859.66265	0.01418
3857.60306	0.01343
3855.54348	0.01234
3853.48389	0.01190
3851.42431	0.01242
3849.36472	0.01296
3847.30514	0.01302
3845.24555	0.01284
3843.18597	0.01299
3841.12638	0.01344
3839.06680	0.01338
3837.00721	0.01272
3834.94763	0.01223
3832.88804	0.01197
3830.82846	0.01174
3828.76887	0.01150
3826.70929	0.01121
3824.64970	0.01110
3822.59012	0.01147
3820.53053	0.01244
3818.47094	0.01341
3816.41136	0.01371
3814.35177	0.01377
3812.29219	0.01395
3810.23260	0.01399
3808.17302	0.01368
3806.11343	0.01297
3804.05385	0.01226
3801.99426	0.01196
3799.93468	0.01172
3797.87509	0.01127
3795.81551	0.01107
3793.75592	0.01144
3791.69634	0.01222
3789.63675	0.01293
3787.57717	0.01309
3785.51758	0.01292
3783.45800	0.01303
3781.39841	0.01328
3779.33883	0.01310
3777.27924	0.01260
3775.21966	0.01229
3773.16007	0.01242
3771.10049	0.01261
3769.04090	0.01250
3766.98132	0.01291
3764.92173	0.01395
3762.86214	0.01425
3760.80256	0.01340
3758.74297	0.01235
3756.68339	0.01200
3754.62380	0.01240
3752.56422	0.01363
3750.50463	0.01521
3748.44505	0.01581
3746.38546	0.01544
3744.32588	0.01466
3742.26629	0.01386
3740.20671	0.01345
3738.14712	0.01321
3736.08754	0.01303
3734.02795	0.01281
3731.96837	0.01225
3729.90878	0.01207
3727.84920	0.01260
3725.78961	0.01291
3723.73003	0.01249
3721.67044	0.01210
3719.61086	0.01229
3717.55127	0.01293
3715.49169	0.01376
3713.43210	0.01449
3711.37251	0.01497
3709.31293	0.01497
3707.25334	0.01458
3705.19376	0.01426
3703.13417	0.01410
3701.07459	0.01384
3699.01500	0.01348
3696.95542	0.01328
3694.89583	0.01309
3692.83625	0.01276
3690.77666	0.01262
3688.71708	0.01313
3686.65749	0.01418
3684.59791	0.01499
3682.53832	0.01531
3680.47874	0.01535
3678.41915	0.01517
3676.35957	0.01492
3674.29998	0.01527
3672.24040	0.01617
3670.18081	0.01685
3668.12123	0.01739
3666.06164	0.01802
3664.00206	0.01853
3661.94247	0.01908
3659.88289	0.01995
3657.82330	0.02054
3655.76371	0.02055
3653.70413	0.02087
3651.64454	0.02176
3649.58496	0.02269
3647.52537	0.02328
3645.46579	0.02326
3643.40620	0.02320
3641.34662	0.02381
3639.28703	0.02483
3637.22745	0.02557
3635.16786	0.02582
3633.10828	0.02569
3631.04869	0.02570
3628.98911	0.02676
3626.92952	0.02886
3624.86994	0.03087
3622.81035	0.03192
3620.75077	0.03170
3618.69118	0.03094
3616.63160	0.03113
3614.57201	0.03273
3612.51243	0.03475
3610.45284	0.03574
3608.39326	0.03572
3606.33367	0.03600
3604.27408	0.03682
3602.21450	0.03774
3600.15491	0.03893
3598.09533	0.04017
3596.03574	0.04093
3593.97616	0.04150
3591.91657	0.04234
3589.85699	0.04352
3587.79740	0.04476
3585.73782	0.04554
3583.67823	0.04618
3581.61865	0.04703
3579.55906	0.04770
3577.49948	0.04821
3575.43989	0.04907
3573.38031	0.05047
3571.32072	0.05229
3569.26114	0.05428
3567.20155	0.05575
3565.14197	0.05626
3563.08238	0.05650
3561.02280	0.05718
3558.96321	0.05813
3556.90363	0.05877
3554.84404	0.05887
3552.78446	0.05916
3550.72487	0.06039
3548.66528	0.06209
3546.60570	0.06371
3544.54611	0.06534
3542.48653	0.06646
3540.42694	0.06668
3538.36736	0.06687
3536.30777	0.06790
3534.24819	0.06941
3532.18860	0.07047
3530.12902	0.07082
3528.06943	0.07107
3526.00985	0.07189
3523.95026	0.07300
3521.89068	0.07382
3519.83109	0.07465
3517.77151	0.07580
3515.71192	0.07696
3513.65234	0.07788
3511.59275	0.07869
3509.53317	0.07940
3507.47358	0.08011
3505.41400	0.08090
3503.35441	0.08145
3501.29483	0.08163
3499.23524	0.08193
3497.17565	0.08252
3495.11607	0.08296
3493.05648	0.08330
3490.99690	0.08381
3488.93731	0.08429
3486.87773	0.08501
3484.81814	0.08605
3482.75856	0.08658
3480.69897	0.08689
3478.63939	0.08752
3476.57980	0.08807
3474.52022	0.08868
3472.46063	0.08942
3470.40105	0.08969
3468.34146	0.08962
3466.28188	0.08980
3464.22229	0.09018
3462.16271	0.09062
3460.10312	0.09126
3458.04354	0.09206
3455.98395	0.09272
3453.92437	0.09336
3451.86478	0.09413
3449.80520	0.09473
3447.74561	0.09501
3445.68603	0.09511
3443.62644	0.09534
3441.56685	0.09600
3439.50727	0.09683
3437.44768	0.09752
3435.38810	0.09820
3433.32851	0.09863
3431.26893	0.09891
3429.20934	0.09968
3427.14976	0.10094
3425.09017	0.10211
3423.03059	0.10304
3420.97100	0.10405
3418.91142	0.10468
3416.85183	0.10463
3414.79225	0.10500
3412.73266	0.10608
3410.67308	0.10713
3408.61349	0.10845
3406.55391	0.11006
3404.49432	0.11110
3402.43474	0.11173
3400.37515	0.11273
3398.31557	0.11392
3396.25598	0.11491
3394.19640	0.11577
3392.13681	0.11667
3390.07723	0.11757
3388.01764	0.11839
3385.95805	0.11939
3383.89847	0.12049
3381.83888	0.12138
3379.77930	0.12229
3377.71971	0.12319
3375.66013	0.12416
3373.60054	0.12560
3371.54096	0.12730
3369.48137	0.12879
3367.42179	0.13041
3365.36220	0.13251
3363.30262	0.13447
3361.24303	0.13563
3359.18345	0.13653
3357.12386	0.13796
3355.06428	0.13970
3353.00469	0.14154
3350.94511	0.14371
3348.88552	0.14601
3346.82594	0.14812
3344.76635	0.15028
3342.70677	0.15290
3340.64718	0.15550
3338.58760	0.15775
3336.52801	0.16043
3334.46842	0.16377
3332.40884	0.16733
3330.34925	0.17086
3328.28967	0.17404
3326.23008	0.17728
3324.17050	0.18101
3322.11091	0.18490
3320.05133	0.18885
3317.99174	0.19304
3315.93216	0.19751
3313.87257	0.20214
3311.81299	0.20668
3309.75340	0.21126
3307.69382	0.21622
3305.63423	0.22137
3303.57465	0.22637
3301.51506	0.23158
3299.45548	0.23702
3297.39589	0.24207
3295.33631	0.24697
3293.27672	0.25226
3291.21714	0.25754
3289.15755	0.26226
3287.09797	0.26668
3285.03838	0.27095
3282.97880	0.27436
3280.91921	0.27672
3278.85962	0.27842
3276.80004	0.27919
3274.74045	0.27863
3272.68087	0.27723
3270.62128	0.27551
3268.56170	0.27314
3266.50211	0.26967
3264.44253	0.26528
3262.38294	0.26046
3260.32336	0.25559
3258.26377	0.25076
3256.20419	0.24599
3254.14460	0.24134
3252.08502	0.23675
3250.02543	0.23225
3247.96585	0.22801
3245.90626	0.22371
3243.84668	0.21916
3241.78709	0.21484
3239.72751	0.21089
3237.66792	0.20729
3235.60834	0.20402
3233.54875	0.20066
3231.48917	0.19701
3229.42958	0.19336
3227.36999	0.18996
3225.31041	0.18694
3223.25082	0.18409
3221.19124	0.18120
3219.13165	0.17818
3217.07207	0.17498
3215.01248	0.17188
3212.95290	0.16916
3210.89331	0.16657
3208.83373	0.16391
3206.77414	0.16119
3204.71456	0.15826
3202.65497	0.15542
3200.59539	0.15300
3198.53580	0.15078
3196.47622	0.14842
3194.41663	0.14555
3192.35705	0.14235
3190.29746	0.13956
3188.23788	0.13736
3186.17829	0.13476
3184.11871	0.13158
3182.05912	0.12891
3179.99954	0.12688
3177.93995	0.12456
3175.88037	0.12199
3173.82078	0.11946
3171.76119	0.11679
3169.70161	0.11437
3167.64202	0.11242
3165.58244	0.11050
3163.52285	0.10857
3161.46327	0.10684
3159.40368	0.10524
3157.34410	0.10352
3155.28451	0.10157
3153.22493	0.09969
3151.16534	0.09825
3149.10576	0.09722
3147.04617	0.09627
3144.98659	0.09521
3142.92700	0.09409
3140.86742	0.09311
3138.80783	0.09205
3136.74825	0.09066
3134.68866	0.08942
3132.62908	0.08887
3130.56949	0.08876
3128.50991	0.08853
3126.45032	0.08825
3124.39074	0.08837
3122.33115	0.08870
3120.27156	0.08898
3118.21198	0.08922
3116.15239	0.08936
3114.09281	0.08937
3112.03322	0.08960
3109.97364	0.09027
3107.91405	0.09105
3105.85447	0.09159
3103.79488	0.09208
3101.73530	0.09292
3099.67571	0.09392
3097.61613	0.09469
3095.55654	0.09529
3093.49696	0.09609
3091.43737	0.09721
3089.37779	0.09823
3087.31820	0.09892
3085.25862	0.09941
3083.19903	0.09987
3081.13945	0.10035
3079.07986	0.10055
3077.02028	0.10022
3074.96069	0.09987
3072.90111	0.09991
3070.84152	0.09993
3068.78194	0.09964
3066.72235	0.09893
3064.66276	0.09759
3062.60318	0.09609
3060.54359	0.09487
3058.48401	0.09371
3056.42442	0.09227
3054.36484	0.09055
3052.30525	0.08865
3050.24567	0.08650
3048.18608	0.08448
3046.12650	0.08300
3044.06691	0.08162
3042.00733	0.07976
3039.94774	0.07763
3037.88816	0.07583
3035.82857	0.07465
3033.76899	0.07360
3031.70940	0.07215
3029.64982	0.07040
3027.59023	0.06887
3025.53065	0.06776
3023.47106	0.06683
3021.41148	0.06596
3019.35189	0.06522
3017.29231	0.06441
3015.23272	0.06371
3013.17313	0.06318
3011.11355	0.06240
3009.05396	0.06162
3006.99438	0.06137
3004.93479	0.06151
3002.87521	0.06173
3000.81562	0.06241
2998.75604	0.06377
2996.69645	0.06503
2994.63687	0.06581
2992.57728	0.06677
2990.51770	0.06808
2988.45811	0.06941
2986.39853	0.07065
2984.33894	0.07176
2982.27936	0.07262
2980.21977	0.07295
2978.16019	0.07294
2976.10060	0.07301
2974.04102	0.07318
2971.98143	0.07323
2969.92185	0.07302
2967.86226	0.07246
2965.80268	0.07176
2963.74309	0.07133
2961.68351	0.07093
2959.62392	0.07018
2957.56433	0.06917
2955.50475	0.06828
2953.44516	0.06811
2951.38558	0.06870
2949.32599	0.06955
2947.26641	0.07071
2945.20682	0.07239
2943.14724	0.07411
2941.08765	0.07561
2939.02807	0.07726
2936.96848	0.07888
2934.90890	0.08008
2932.84931	0.08096
2930.78973	0.08122
2928.73014	0.08051
2926.67056	0.07930
2924.61097	0.07794
2922.55139	0.07611
2920.49180	0.07369
2918.43222	0.07142
2916.37263	0.06965
2914.31305	0.06762
2912.25346	0.06507
2910.19388	0.06264
2908.13429	0.06074
2906.07471	0.05945
2904.01512	0.05852
2901.95553	0.05748
2899.89595	0.05626
2897.83636	0.05520
2895.77678	0.05463
2893.71719	0.05424
2891.65761	0.05371
2889.59802	0.05312
2887.53844	0.05270
2885.47885	0.05266
2883.41927	0.05297
2881.35968	0.05344
2879.30010	0.05382
2877.24051	0.05395
2875.18093	0.05371
2873.12134	0.05311
2871.06176	0.05233
2869.00217	0.05128
2866.94259	0.04997
2864.88300	0.04870
2862.82342	0.04781
2860.76383	0.04731
2858.70425	0.04709
2856.64466	0.04708
2854.58508	0.04693
2852.52549	0.04654
2850.46590	0.04589
2848.40632	0.04463
2846.34673	0.04299
2844.28715	0.04155
2842.22756	0.04044
2840.16798	0.03951
2838.10839	0.03862
2836.04881	0.03793
2833.98922	0.03762
2831.92964	0.03740
2829.87005	0.03715
2827.81047	0.03704
2825.75088	0.03695
2823.69130	0.03674
2821.63171	0.03657
2819.57213	0.03652
2817.51254	0.03641
2815.45296	0.03611
2813.39337	0.03572
2811.33379	0.03545
2809.27420	0.03536
2807.21462	0.03513
2805.15503	0.03476
2803.09545	0.03449
2801.03586	0.03426
2798.97628	0.03409
2796.91669	0.03392
2794.85710	0.03358
2792.79752	0.03330
2790.73793	0.03321
2788.67835	0.03312
2786.61876	0.03272
2784.55918	0.03205
2782.49959	0.03146
2780.44001	0.03103
2778.38042	0.03075
2776.32084	0.03076
2774.26125	0.03077
2772.20167	0.03053
2770.14208	0.03020
2768.08250	0.02972
2766.02291	0.02912
2763.96333	0.02879
2761.90374	0.02859
2759.84416	0.02833
2757.78457	0.02825
2755.72499	0.02815
2753.66540	0.02774
2751.60582	0.02731
2749.54623	0.02704
2747.48665	0.02661
2745.42706	0.02601
2743.36747	0.02567
2741.30789	0.02549
2739.24830	0.02514
2737.18872	0.02475
2735.12913	0.02435
2733.06955	0.02402
2731.00996	0.02392
2728.95038	0.02397
2726.89079	0.02409
2724.83121	0.02401
2722.77162	0.02353
2720.71204	0.02303
2718.65245	0.02282
2716.59287	0.02269
2714.53328	0.02251
2712.47370	0.02233
2710.41411	0.02212
2708.35453	0.02190
2706.29494	0.02179
2704.23536	0.02194
2702.17577	0.02203
2700.11619	0.02184
2698.05660	0.02158
2695.99702	0.02143
2693.93743	0.02137
2691.87785	0.02122
2689.81826	0.02098
2687.75867	0.02076
2685.69909	0.02065
2683.63950	0.02061
2681.57992	0.02049
2679.52033	0.02045
2677.46075	0.02057
2675.40116	0.02053
2673.34158	0.02021
2671.28199	0.01988
2669.22241	0.01977
2667.16282	0.01976
2665.10324	0.01971
2663.04365	0.01972
2660.98407	0.01981
2658.92448	0.01983
2656.86490	0.01977
2654.80531	0.01964
2652.74573	0.01952
2650.68614	0.01951
2648.62656	0.01953
2646.56697	0.01946
2644.50739	0.01924
2642.44780	0.01903
2640.38822	0.01911
2638.32863	0.01934
2636.26904	0.01933
2634.20946	0.01896
2632.14987	0.01854
2630.09029	0.01843
2628.03070	0.01869
2625.97112	0.01903
2623.91153	0.01898
2621.85195	0.01861
2619.79236	0.01855
2617.73278	0.01875
2615.67319	0.01842
2613.61361	0.01781
2611.55402	0.01761
2609.49444	0.01787
2607.43485	0.01834
2605.37527	0.01866
2603.31568	0.01857
2601.25610	0.01823
2599.19651	0.01766
2597.13693	0.01694
2595.07734	0.01636
2593.01776	0.01609
2590.95817	0.01623
2588.89859	0.01637
2586.83900	0.01624
2584.77942	0.01628
2582.71983	0.01641
2580.66024	0.01620
2578.60066	0.01577
2576.54107	0.01528
2574.48149	0.01470
2572.42190	0.01438
2570.36232	0.01443
2568.30273	0.01443
2566.24315	0.01421
2564.18356	0.01399
2562.12398	0.01397
2560.06439	0.01409
2558.00481	0.01425
2555.94522	0.01434
2553.88564	0.01407
2551.82605	0.01374
2549.76647	0.01379
2547.70688	0.01380
2545.64730	0.01353
2543.58771	0.01339
2541.52813	0.01351
2539.46854	0.01345
2537.40896	0.01308
2535.34937	0.01293
2533.28979	0.01298
2531.23020	0.01292
2529.17062	0.01271
2527.11103	0.01241
2525.05144	0.01230
2522.99186	0.01258
2520.93227	0.01292
2518.87269	0.01285
2516.81310	0.01251
2514.75352	0.01220
2512.69393	0.01214
2510.63435	0.01248
2508.57476	0.01274
2506.51518	0.01262
2504.45559	0.01252
2502.39601	0.01249
2500.33642	0.01245
2498.27684	0.01264
2496.21725	0.01288
2494.15767	0.01288
2492.09808	0.01279
2490.03850	0.01282
2487.97891	0.01286
2485.91933	0.01289
2483.85974	0.01302
2481.80016	0.01316
2479.74057	0.01312
2477.68099	0.01297
2475.62140	0.01284
2473.56181	0.01248
2471.50223	0.01212
2469.44264	0.01224
2467.38306	0.01236
2465.32347	0.01223
2463.26389	0.01218
2461.20430	0.01216
2459.14472	0.01192
2457.08513	0.01173
2455.02555	0.01198
2452.96596	0.01237
2450.90638	0.01227
2448.84679	0.01176
2446.78721	0.01139
2444.72762	0.01129
2442.66804	0.01157
2440.60845	0.01217
2438.54887	0.01238
2436.48928	0.01204
2434.42970	0.01167
2432.37011	0.01129
2430.31053	0.01095
2428.25094	0.01094
2426.19136	0.01107
2424.13177	0.01102
2422.07219	0.01112
2420.01260	0.01145
2417.95301	0.01129
2415.89343	0.01059
2413.83384	0.01021
2411.77426	0.01022
2409.71467	0.01017
2407.65509	0.01020
2405.59550	0.01030
2403.53592	0.01015
2401.47633	0.00992
2399.41675	0.00956
2397.35716	0.00993
2395.29758	0.01037
2393.23799	0.01054
2391.17841	0.01066
2389.11882	0.01101
2387.05924	0.01161
2384.99965	0.01206
2382.94007	0.01207
2380.88048	0.01170
2378.82090	0.01118
2376.76131	0.01084
2374.70173	0.01024
2372.64214	0.00973
2370.58256	0.00952
2368.52297	0.00923
2366.46338	0.00881
2364.40380	0.00789
2362.34421	0.00738
2360.28463	0.00777
2358.22504	0.00776
2356.16546	0.00812
2354.10587	0.00882
2352.04629	0.01004
2349.98670	0.01254
2347.92712	0.01255
2345.86753	0.01056
2343.80795	0.00970
2341.74836	0.00931
2339.68878	0.00958
2337.62919	0.00924
2335.56961	0.00859
2333.51002	0.00949
2331.45044	0.01035
2329.39085	0.01133
2327.33127	0.01133
2325.27168	0.01129
2323.21210	0.01075
2321.15251	0.01044
2319.09293	0.01069
2317.03334	0.01115
2314.97376	0.01129
2312.91417	0.01099
2310.85458	0.01097
2308.79500	0.01129
2306.73541	0.01149
2304.67583	0.01156
2302.61624	0.01141
2300.55666	0.01132
2298.49707	0.01155
2296.43749	0.01181
2294.37790	0.01178
2292.31832	0.01186
2290.25873	0.01201
2288.19915	0.01186
2286.13956	0.01137
2284.07998	0.01090
2282.02039	0.01084
2279.96081	0.01115
2277.90122	0.01119
2275.84164	0.01086
2273.78205	0.01074
2271.72247	0.01056
2269.66288	0.01014
2267.60330	0.01004
2265.54371	0.01054
2263.48413	0.01110
2261.42454	0.01114
2259.36495	0.01067
2257.30537	0.01018
2255.24578	0.01004
2253.18620	0.01017
2251.12661	0.01001
2249.06703	0.00956
2247.00744	0.01000
2244.94786	0.01026
2242.88827	0.00995
2240.82869	0.00957
2238.76910	0.00921
2236.70952	0.00905
2234.64993	0.00951
2232.59035	0.01040
2230.53076	0.01100
2228.47118	0.01040
2226.41159	0.00916
2224.35201	0.00877
2222.29242	0.00891
2220.23284	0.00898
2218.17325	0.00926
2216.11367	0.00951
2214.05408	0.00931
2211.99450	0.00851
2209.93491	0.00786
2207.87533	0.00823
2205.81574	0.00903
2203.75615	0.00896
2201.69657	0.00818
2199.63698	0.00809
2197.57740	0.00895
2195.51781	0.00941
2193.45823	0.00933
2191.39864	0.00959
2189.33906	0.00990
2187.27947	0.00987
2185.21989	0.00970
2183.16030	0.00951
2181.10072	0.00973
2179.04113	0.01027
2176.98155	0.00974
2174.92196	0.00843
2172.86238	0.00788
2170.80279	0.00779
2168.74321	0.00777
2166.68362	0.00827
2164.62404	0.00972
2162.56445	0.01128
2160.50487	0.01027
2158.44528	0.00651
2156.38570	0.00407
2154.32611	0.00470
2152.26652	0.00667
2150.20694	0.00808
2148.14735	0.00870
2146.08777	0.00880
2144.02818	0.00838
2141.96860	0.00817
2139.90901	0.00836
2137.84943	0.00805
2135.78984	0.00721
2133.73026	0.00688
2131.67067	0.00752
2129.61109	0.00867
2127.55150	0.00950
2125.49192	0.00947
2123.43233	0.00904
2121.37275	0.00914
2119.31316	0.00983
2117.25358	0.01018
2115.19399	0.01003
2113.13441	0.00999
2111.07482	0.01002
2109.01524	0.01016
2106.95565	0.01033
2104.89607	0.01021
2102.83648	0.01047
2100.77690	0.01116
2098.71731	0.01113
2096.65772	0.00998
2094.59814	0.00868
2092.53855	0.00860
2090.47897	0.00949
2088.41938	0.01001
2086.35980	0.00977
2084.30021	0.00908
2082.24063	0.00842
2080.18104	0.00823
2078.12146	0.00825
2076.06187	0.00834
2074.00229	0.00825
2071.94270	0.00799
2069.88312	0.00834
2067.82353	0.00891
2065.76395	0.00872
2063.70436	0.00813
2061.64478	0.00776
2059.58519	0.00800
2057.52561	0.00867
2055.46602	0.00900
2053.40644	0.00940
2051.34685	0.00991
2049.28727	0.00945
2047.22768	0.00858
2045.16810	0.00854
2043.10851	0.00858
2041.04892	0.00796
2038.98934	0.00774
2036.92975	0.00798
2034.87017	0.00774
2032.81058	0.00775
2030.75100	0.00789
2028.69141	0.00722
2026.63183	0.00636
2024.57224	0.00577
2022.51266	0.00578
2020.45307	0.00650
2018.39349	0.00682
2016.33390	0.00641
2014.27432	0.00609
2012.21473	0.00648
2010.15515	0.00720
2008.09556	0.00726
2006.03598	0.00677
2003.97639	0.00677
2001.91681	0.00738
1999.85722	0.00766
1997.79764	0.00724
1995.73805	0.00676
1993.67847	0.00692
1991.61888	0.00730
1989.55929	0.00710
1987.49971	0.00696
1985.44012	0.00730
1983.38054	0.00774
1981.32095	0.00821
1979.26137	0.00820
1977.20178	0.00757
1975.14220	0.00693
1973.08261	0.00665
1971.02303	0.00661
1968.96344	0.00627
1966.90386	0.00603
1964.84427	0.00645
1962.78469	0.00709
1960.72510	0.00731
1958.66552	0.00658
1956.60593	0.00545
1954.54635	0.00558
1952.48676	0.00708
1950.42718	0.00805
1948.36759	0.00752
1946.30801	0.00651
1944.24842	0.00621
1942.18884	0.00672
1940.12925	0.00719
1938.06967	0.00695
1936.01008	0.00653
1933.95049	0.00651
1931.89091	0.00659
1929.83132	0.00654
1927.77174	0.00672
1925.71215	0.00730
1923.65257	0.00789
1921.59298	0.00795
1919.53340	0.00745
1917.47381	0.00699
1915.41423	0.00695
1913.35464	0.00689
1911.29506	0.00671
1909.23547	0.00686
1907.17589	0.00720
1905.11630	0.00738
1903.05672	0.00746
1900.99713	0.00751
1898.93755	0.00758
1896.87796	0.00755
1894.81838	0.00742
1892.75879	0.00744
1890.69921	0.00755
1888.63962	0.00746
1886.58004	0.00731
1884.52045	0.00736
1882.46086	0.00740
1880.40128	0.00734
1878.34169	0.00741
1876.28211	0.00775
1874.22252	0.00808
1872.16294	0.00816
1870.10335	0.00817
1868.04377	0.00819
1865.98418	0.00807
1863.92460	0.00777
1861.86501	0.00741
1859.80543	0.00718
1857.74584	0.00720
1855.68626	0.00738
1853.62667	0.00754
1851.56709	0.00765
1849.50750	0.00781
1847.44792	0.00805
1845.38833	0.00829
1843.32875	0.00844
1841.26916	0.00845
1839.20958	0.00839
1837.14999	0.00836
1835.09041	0.00837
1833.03082	0.00843
1830.97124	0.00855
1828.91165	0.00861
1826.85206	0.00852
1824.79248	0.00845
1822.73289	0.00846
1820.67331	0.00843
1818.61372	0.00841
1816.55414	0.00845
1814.49455	0.00854
1812.43497	0.00871
1810.37538	0.00885
1808.31580	0.00888
1806.25621	0.00889
1804.19663	0.00896
1802.13704	0.00912
1800.07746	0.00933
1798.01787	0.00955
1795.95829	0.00980
1793.89870	0.00996
1791.83912	0.00999
1789.77953	0.01006
1787.71995	0.01021
1785.66036	0.01032
1783.60078	0.01036
1781.54119	0.01046
1779.48161	0.01056
1777.42202	0.01066
1775.36243	0.01078
1773.30285	0.01090
1771.24326	0.01109
1769.18368	0.01142
1767.12409	0.01175
1765.06451	0.01193
1763.00492	0.01197
1760.94534	0.01193
1758.88575	0.01199
1756.82617	0.01229
1754.76658	0.01285
1752.70700	0.01350
1750.64741	0.01401
1748.58783	0.01433
1746.52824	0.01462
1744.46866	0.01492
1742.40907	0.01522
1740.34949	0.01546
1738.28990	0.01568
1736.23032	0.01603
1734.17073	0.01654
1732.11115	0.01700
1730.05156	0.01735
1727.99198	0.01774
1725.93239	0.01823
1723.87281	0.01893
1721.81322	0.01987
1719.75363	0.02110
1717.69405	0.02289
1715.63446	0.02532
1713.57488	0.02810
1711.51529	0.03141
1709.45571	0.03602
1707.39612	0.04317
1705.33654	0.05337
1703.27695	0.06446
1701.21737	0.07483
1699.15778	0.08330
1697.09820	0.08773
1695.03861	0.08959
1692.97903	0.09134
1690.91944	0.09387
1688.85986	0.09714
1686.80027	0.10094
1684.74069	0.10608
1682.68110	0.11245
1680.62152	0.11799
1678.56193	0.12286
1676.50235	0.12828
1674.44276	0.13449
1672.38318	0.14054
1670.32359	0.14687
1668.26401	0.15387
1666.20442	0.16007
1664.14483	0.16589
1662.08525	0.17254
1660.02566	0.17917
1657.96608	0.18470
1655.90649	0.18970
1653.84691	0.19586
1651.78732	0.20261
1649.72774	0.20714
1647.66815	0.21097
1645.60857	0.21563
1643.54898	0.21992
1641.48940	0.22357
1639.42981	0.22737
1637.37023	0.23259
1635.31064	0.24034
1633.25106	0.24878
1631.19147	0.25658
1629.13189	0.26527
1627.07230	0.27523
1625.01272	0.28505
1622.95313	0.29359
1620.89355	0.29918
1618.83396	0.30029
1616.77438	0.29617
1614.71479	0.28814
1612.65520	0.27845
1610.59562	0.26623
1608.53603	0.25056
1606.47645	0.23291
1604.41686	0.21504
1602.35728	0.19785
1600.29769	0.18245
1598.23811	0.16952
1596.17852	0.15843
1594.11894	0.14840
1592.05935	0.13945
1589.99977	0.13188
1587.94018	0.12596
1585.88060	0.12175
1583.82101	0.11912
1581.76143	0.11791
1579.70184	0.11796
1577.64226	0.11939
1575.58267	0.12226
1573.52309	0.12586
1571.46350	0.13006
1569.40392	0.13555
1567.34433	0.14163
1565.28475	0.14739
1563.22516	0.15274
1561.16558	0.15837
1559.10599	0.16646
1557.04640	0.17550
1554.98682	0.18204
1552.92723	0.18768
1550.86765	0.19374
1548.80806	0.19999
1546.74848	0.20593
1544.68889	0.21193
1542.62931	0.21868
1540.56972	0.22650
1538.51014	0.23402
1536.45055	0.23932
1534.39097	0.24404
1532.33138	0.24941
1530.27180	0.25424
1528.21221	0.25827
1526.15263	0.26191
1524.09304	0.26504
1522.03346	0.26806
1519.97387	0.27163
1517.91429	0.27557
1515.85470	0.27916
1513.79512	0.28135
1511.73553	0.28186
1509.67595	0.28056
1507.61636	0.27599
1505.55677	0.26872
1503.49719	0.26262
1501.43760	0.25716
1499.37802	0.24973
1497.31843	0.23957
1495.25885	0.22894
1493.19926	0.21991
1491.13968	0.21042
1489.08009	0.19864
1487.02051	0.18718
1484.96092	0.17795
1482.90134	0.16992
1480.84175	0.16232
1478.78217	0.15569
1476.72258	0.15016
1474.66300	0.14516
1472.60341	0.14062
1470.54383	0.13740
1468.48424	0.13578
1466.42466	0.13494
1464.36507	0.13462
1462.30549	0.13507
1460.24590	0.13658
1458.18632	0.14005
1456.12673	0.14574
1454.06715	0.15142
1452.00756	0.15627
1449.94797	0.16063
1447.88839	0.16407
1445.82880	0.16586
1443.76922	0.16605
1441.70963	0.16522
1439.65005	0.16334
1437.59046	0.15951
1435.53088	0.15370
1433.47129	0.14771
1431.41171	0.14218
1429.35212	0.13714
1427.29254	0.13340
1425.23295	0.13117
1423.17337	0.13015
1421.11378	0.13017
1419.05420	0.13112
1416.99461	0.13262
1414.93503	0.13406
1412.87544	0.13527
1410.81586	0.13630
1408.75627	0.13699
1406.69669	0.13702
1404.63710	0.13622
1402.57752	0.13477
1400.51793	0.13299
1398.45834	0.13107
1396.39876	0.12933
1394.33917	0.12802
1392.27959	0.12726
1390.22000	0.12691
1388.16042	0.12662
1386.10083	0.12627
1384.04125	0.12587
1381.98166	0.12535
1379.92208	0.12471
1377.86249	0.12401
1375.80291	0.12330
1373.74332	0.12262
1371.68374	0.12194
1369.62415	0.12102
1367.56457	0.11949
1365.50498	0.11716
1363.44540	0.11387
1361.38581	0.11009
1359.32623	0.10674
1357.26664	0.10415
1355.20706	0.10219
1353.14747	0.10083
1351.08789	0.10012
1349.02830	0.10010
1346.96872	0.10056
1344.90913	0.10131
1342.84954	0.10227
1340.78996	0.10339
1338.73037	0.10444
1336.67079	0.10507
1334.61120	0.10512
1332.55162	0.10458
1330.49203	0.10347
1328.43245	0.10189
1326.37286	0.10001
1324.31328	0.09807
1322.25369	0.09627
1320.19411	0.09476
1318.13452	0.09359
1316.07494	0.09283
1314.01535	0.09243
1311.95577	0.09224
1309.89618	0.09207
1307.83660	0.09182
1305.77701	0.09160
1303.71743	0.09149
1301.65784	0.09143
1299.59826	0.09138
1297.53867	0.09138
1295.47909	0.09149
1293.41950	0.09174
1291.35991	0.09215
1289.30033	0.09272
1287.24074	0.09344
1285.18116	0.09438
1283.12157	0.09565
1281.06199	0.09734
1279.00240	0.09949
1276.94282	0.10222
1274.88323	0.10551
1272.82365	0.10925
1270.76406	0.11315
1268.70448	0.11682
1266.64489	0.11989
1264.58531	0.12211
1262.52572	0.12353
1260.46614	0.12442
1258.40655	0.12501
1256.34697	0.12563
1254.28738	0.12660
1252.22780	0.12803
1250.16821	0.12976
1248.10863	0.13178
1246.04904	0.13423
1243.98946	0.13703
1241.92987	0.13998
1239.87029	0.14308
1237.81070	0.14633
1235.75111	0.14960
1233.69153	0.15253
1231.63194	0.15471
1229.57236	0.15581
1227.51277	0.15569
1225.45319	0.15442
1223.39360	0.15225
1221.33402	0.14932
1219.27443	0.14577
1217.21485	0.14163
1215.15526	0.13680
1213.09568	0.13135
1211.03609	0.12560
1208.97651	0.11979
1206.91692	0.11409
1204.85734	0.10856
1202.79775	0.10324
1200.73817	0.09821
1198.67858	0.09366
1196.61900	0.08976
1194.55941	0.08651
1192.49983	0.08383
1190.44024	0.08166
1188.38066	0.07995
1186.32107	0.07873
1184.26149	0.07814
1182.20190	0.07814
1180.14231	0.07879
1178.08273	0.08042
1176.02314	0.08295
1173.96356	0.08583
1171.90397	0.08850
1169.84439	0.09060
1167.78480	0.09205
1165.72522	0.09295
1163.66563	0.09328
1161.60605	0.09291
1159.54646	0.09186
1157.48688	0.09019
1155.42729	0.08800
1153.36771	0.08544
1151.30812	0.08251
1149.24854	0.07934
1147.18895	0.07617
1145.12937	0.07321
1143.06978	0.07062
1141.01020	0.06839
1138.95061	0.06645
1136.89103	0.06480
1134.83144	0.06344
1132.77186	0.06228
1130.71227	0.06133
1128.65268	0.06057
1126.59310	0.05988
1124.53351	0.05926
1122.47393	0.05880
1120.41434	0.05843
1118.35476	0.05811
1116.29517	0.05781
1114.23559	0.05753
1112.17600	0.05732
1110.11642	0.05731
1108.05683	0.05760
1105.99725	0.05795
1103.93766	0.05807
1101.87808	0.05789
1099.81849	0.05750
1097.75891	0.05709
1095.69932	0.05691
1093.63974	0.05716
1091.58015	0.05805
1089.52057	0.05956
1087.46098	0.06150
1085.40140	0.06375
1083.34181	0.06618
1081.28223	0.06870
1079.22264	0.07131
1077.16306	0.07386
1075.10347	0.07609
1073.04388	0.07788
1070.98430	0.07929
1068.92471	0.08027
1066.86513	0.08066
1064.80554	0.08056
1062.74596	0.08024
1060.68637	0.07977
1058.62679	0.07912
1056.56720	0.07833
1054.50762	0.07740
1052.44803	0.07631
1050.38845	0.07509
1048.32886	0.07384
1046.26928	0.07267
1044.20969	0.07153
1042.15011	0.07032
1040.09052	0.06891
1038.03094	0.06727
1035.97135	0.06557
1033.91177	0.06392
1031.85218	0.06229
1029.79260	0.06070
1027.73301	0.05919
1025.67343	0.05786
1023.61384	0.05711
1021.55425	0.05723
1019.49467	0.05818
1017.43508	0.05967
1015.37550	0.06108
1013.31591	0.06179
1011.25633	0.06164
1009.19674	0.06106
1007.13716	0.06066
1005.07757	0.06061
1003.01799	0.06077
1000.95840	0.06078
998.89882	0.06026
996.83923	0.05913
994.77965	0.05745
992.72006	0.05516
990.66048	0.05242
988.60089	0.04979
986.54131	0.04788
984.48172	0.04711
982.42214	0.04753
980.36255	0.04868
978.30297	0.04990
976.24338	0.05067
974.18380	0.05068
972.12421	0.04987
970.06463	0.04852
968.00504	0.04704
965.94545	0.04574
963.88587	0.04477
961.82628	0.04405
959.76670	0.04342
957.70711	0.04284
955.64753	0.04233
953.58794	0.04187
951.52836	0.04145
949.46877	0.04113
947.40919	0.04090
945.34960	0.04064
943.29002	0.04029
941.23043	0.03991
939.17085	0.03958
937.11126	0.03940
935.05168	0.03939
932.99209	0.03950
930.93251	0.03961
928.87292	0.03955
926.81334	0.03917
924.75375	0.03849
922.69417	0.03756
920.63458	0.03654
918.57500	0.03549
916.51541	0.03439
914.45582	0.03343
912.39624	0.03274
910.33665	0.03215
908.27707	0.03155
906.21748	0.03115
904.15790	0.03108
902.09831	0.03107
900.03873	0.03097
897.97914	0.03090
895.91956	0.03078
893.85997	0.03058
891.80039	0.03042
889.74080	0.03034
887.68122	0.03020
885.62163	0.03007
883.56205	0.03008
881.50246	0.03012
879.44288	0.03015
877.38329	0.03020
875.32371	0.03025
873.26412	0.03032
871.20454	0.03035
869.14495	0.03048
867.08537	0.03087
865.02578	0.03145
862.96620	0.03214
860.90661	0.03300
858.84702	0.03408
856.78744	0.03518
854.72785	0.03603
852.66827	0.03662
850.60868	0.03706
848.54910	0.03721
846.48951	0.03707
844.42993	0.03692
842.37034	0.03706
840.31076	0.03756
838.25117	0.03831
836.19159	0.03917
834.13200	0.04002
832.07242	0.04082
830.01283	0.04137
827.95325	0.04158
825.89366	0.04164
823.83408	0.04161
821.77449	0.04145
819.71491	0.04137
817.65532	0.04150
815.59574	0.04182
813.53615	0.04220
811.47657	0.04249
809.41698	0.04267
807.35740	0.04295
805.29781	0.04331
803.23822	0.04356
801.17864	0.04368
799.11905	0.04375
797.05947	0.04391
794.99988	0.04428
792.94030	0.04478
790.88071	0.04526
788.82113	0.04590
786.76154	0.04683
784.70196	0.04773
782.64237	0.04847
780.58279	0.04922
778.52320	0.05014
776.46362	0.05112
774.40403	0.05215
772.34445	0.05322
770.28486	0.05432
768.22528	0.05531
766.16569	0.05612
764.10611	0.05679
762.04652	0.05741
759.98694	0.05807
757.92735	0.05867
755.86777	0.05927
753.80818	0.06002
751.74859	0.06089
749.68901	0.06192
747.62942	0.06311
745.56984	0.06436
743.51025	0.06580
741.45067	0.06738
739.39108	0.06882
737.33150	0.07016
735.27191	0.07166
733.21233	0.07343
731.15274	0.07510
729.09316	0.07659
727.03357	0.07814
724.97399	0.07971
722.91440	0.08103
720.85482	0.08219
718.79523	0.08349
716.73565	0.08468
714.67606	0.08582
712.61648	0.08703
710.55689	0.08835
708.49731	0.08968
706.43772	0.09097
704.37814	0.09232
702.31855	0.09367
700.25897	0.09484
698.19938	0.09579
696.13979	0.09645
694.08021	0.09702
692.02062	0.09771
689.96104	0.09833
687.90145	0.09872
685.84187	0.09903
683.78228	0.09938
681.72270	0.09969
679.66311	0.09991
677.60353	0.10011
675.54394	0.10034
673.48436	0.10053
671.42477	0.10068
669.36519	0.10076
667.30560	0.09953
665.24602	0.10111
663.18643	0.10165
661.12685	0.10186
659.06726	0.10229
657.00768	0.10288
654.94809	0.10336
652.88851	0.10372
650.82892	0.10402
648.76934	0.10431
646.70975	0.10467
644.65016	0.10489
642.59058	0.10497
640.53099	0.10502
638.47141	0.10508
636.41182	0.10521
634.35224	0.10538
632.29265	0.10545
630.23307	0.10541
628.17348	0.10527
626.11390	0.10511
624.05431	0.10511
621.99473	0.10527
619.93514	0.10553
617.87556	0.10581
615.81597	0.10610
613.75639	0.10645
611.69680	0.10681
609.63722	0.10707
607.57763	0.10699
605.51805	0.10648
603.45846	0.10570
601.39888	0.10487
599.33929	0.10407
597.27971	0.10328
595.22012	0.10250
593.16054	0.10193
591.10095	0.10170
589.04136	0.10147
586.98178	0.10113
584.92219	0.10086
582.86261	0.10072
580.80302	0.10059
578.74344	0.10040
576.68385	0.10034
574.62427	0.10061
572.56468	0.10104
570.50510	0.10153
568.44551	0.10211
566.38593	0.10276
564.32634	0.10361
562.26676	0.10474
560.20717	0.10605
558.14759	0.10762
556.08800	0.10948
554.02842	0.11150
551.96883	0.11347
549.90925	0.11515
547.84966	0.11613
545.79008	0.11631
543.73049	0.11600
541.67091	0.11541
539.61132	0.11473
537.55173	0.11416
535.49215	0.11371
533.43256	0.11305
531.37298	0.11204
529.31339	0.11097
527.25381	0.11021
525.19422	0.10962
523.13464	0.10894
521.07505	0.10822
519.01547	0.10747
516.95588	0.10676
514.89630	0.10632
512.83671	0.10607
510.77713	0.10577
508.71754	0.10527
506.65796	0.10466
504.59837	0.10412
502.53879	0.10367
500.47920	0.10321
498.41962	0.10263
496.36003	0.10207
494.30045	0.10179
492.24086	0.10171
490.18128	0.10151
488.12169	0.10098
486.06211	0.10028
484.00252	0.09975
481.94293	0.09943
479.88335	0.09897
477.82376	0.09803
475.76418	0.09675
473.70459	0.09568
471.64501	0.09518
469.58542	0.09488
467.52584	0.09440
465.46625	0.09389
463.40667	0.09350
461.34708	0.09311
459.28750	0.09264
457.22791	0.09218
455.16833	0.09180
453.10874	0.09149
451.04916	0.09105
448.98957	0.09042
446.92999	0.08990
444.87040	0.08965
442.81082	0.08945
440.75123	0.08904
438.69165	0.08846
436.63206	0.08791
434.57248	0.08750
432.51289	0.08756
430.45330	0.08861
428.39372	0.09022
426.33413	0.09120
424.27455	0.09112
422.21496	0.09060
420.15538	0.09027
418.09579	0.08975
416.03621	0.08859
413.97662	0.08751
411.91704	0.08699
409.85745	0.08673
407.79787	0.08607
405.73828	0.08490
403.67870	0.08387
401.61911	0.08329
399.55953	0.08286
