3997.65486	0.00655
3995.59527	0.00694
3993.53569	0.00703
3991.47610	0.00716
3989.41652	0.00753
3987.35693	0.00766
3985.29735	0.00751
3983.23776	0.00723
3981.17817	0.00690
3979.11859	0.00681
3977.05900	0.00697
3974.99942	0.00709
3972.93983	0.00715
3970.88025	0.00718
3968.82066	0.00691
3966.76108	0.00631
3964.70149	0.00593
3962.64191	0.00615
3960.58232	0.00656
3958.52274	0.00682
3956.46315	0.00686
3954.40357	0.00660
3952.34398	0.00638
3950.28440	0.00660
3948.22481	0.00703
3946.16523	0.00713
3944.10564	0.00683
3942.04606	0.00648
3939.98647	0.00652
3937.92689	0.00708
3935.86730	0.00754
3933.80772	0.00736
3931.74813	0.00680
3929.68855	0.00660
3927.62896	0.00705
3925.56937	0.00748
3923.50979	0.00725
3921.45020	0.00678
3919.39062	0.00670
3917.33103	0.00689
3915.27145	0.00665
3913.21186	0.00589
3911.15228	0.00550
3909.09269	0.00595
3907.03311	0.00684
3904.97352	0.00753
3902.91394	0.00730
3900.85435	0.00649
3898.79477	0.00629
3896.73518	0.00679
3894.67560	0.00739
3892.61601	0.00780
3890.55643	0.00749
3888.49684	0.00655
3886.43726	0.00587
3884.37767	0.00558
3882.31809	0.00565
3880.25850	0.00627
3878.19892	0.00711
3876.13933	0.00792
3874.07974	0.00869
3872.02016	0.00897
3869.96057	0.00848
3867.90099	0.00758
3865.84140	0.00687
3863.78182	0.00679
3861.72223	0.00710
3859.66265	0.00707
3857.60306	0.00666
3855.54348	0.00633
3853.48389	0.00629
3851.42431	0.00667
3849.36472	0.00694
3847.30514	0.00646
3845.24555	0.00597
3843.18597	0.00664
3841.12638	0.00802
3839.06680	0.00831
3837.00721	0.00697
3834.94763	0.00540
3832.88804	0.00464
3830.82846	0.00475
3828.76887	0.00520
3826.70929	0.00531
3824.64970	0.00513
3822.59012	0.00516
3820.53053	0.00569
3818.47094	0.00632
3816.41136	0.00657
3814.35177	0.00663
3812.29219	0.00672
3810.23260	0.00689
3808.17302	0.00702
3806.11343	0.00651
3804.05385	0.00580
3801.99426	0.00608
3799.93468	0.00696
3797.87509	0.00706
3795.81551	0.00648
3793.75592	0.00634
3791.69634	0.00687
3789.63675	0.00718
3787.57717	0.00691
3785.51758	0.00662
3783.45800	0.00654
3781.39841	0.00641
3779.33883	0.00608
3777.27924	0.00563
3775.21966	0.00534
3773.16007	0.00562
3771.10049	0.00635
3769.04090	0.00680
3766.98132	0.00702
3764.92173	0.00735
3762.86214	0.00737
3760.80256	0.00696
3758.74297	0.00657
3756.68339	0.00647
3754.62380	0.00674
3752.56422	0.00755
3750.50463	0.00855
3748.44505	0.00848
3746.38546	0.00699
3744.32588	0.00547
3742.26629	0.00555
3740.20671	0.00645
3738.14712	0.00688
3736.08754	0.00690
3734.02795	0.00718
3731.96837	0.00745
3729.90878	0.00759
3727.84920	0.00796
3725.78961	0.00817
3723.73003	0.00771
3721.67044	0.00706
3719.61086	0.00662
3717.55127	0.00652
3715.49169	0.00701
3713.43210	0.00781
3711.37251	0.00813
3709.31293	0.00777
3707.25334	0.00739
3705.19376	0.00702
3703.13417	0.00676
3701.07459	0.00698
3699.01500	0.00738
3696.95542	0.00755
3694.89583	0.00749
3692.83625	0.00726
3690.77666	0.00697
3688.71708	0.00705
3686.65749	0.00762
3684.59791	0.00799
3682.53832	0.00773
3680.47874	0.00718
3678.41915	0.00684
3676.35957	0.00686
3674.29998	0.00720
3672.24040	0.00762
3670.18081	0.00778
3668.12123	0.00785
3666.06164	0.00808
3664.00206	0.00826
3661.94247	0.00833
3659.88289	0.00857
3657.82330	0.00895
3655.76371	0.00934
3653.70413	0.00985
3651.64454	0.01031
3649.58496	0.01042
3647.52537	0.01026
3645.46579	0.01007
3643.40620	0.01009
3641.34662	0.01048
3639.28703	0.01107
3637.22745	0.01163
3635.16786	0.01211
3633.10828	0.01257
3631.04869	0.01297
3628.98911	0.01308
3626.92952	0.01308
3624.86994	0.01355
3622.81035	0.01429
3620.75077	0.01474
3618.69118	0.01466
3616.63160	0.01425
3614.57201	0.01410
3612.51243	0.01454
3610.45284	0.01492
3608.39326	0.01451
3606.33367	0.01394
3604.27408	0.01443
3602.21450	0.01587
3600.15491	0.01721
3598.09533	0.01784
3596.03574	0.01800
3593.97616	0.01806
3591.91657	0.01809
3589.85699	0.01842
3587.79740	0.01920
3585.73782	0.01965
3583.67823	0.01960
3581.61865	0.01966
3579.55906	0.01991
3577.49948	0.02006
3575.43989	0.02033
3573.38031	0.02108
3571.32072	0.02200
3569.26114	0.02270
3567.20155	0.02327
3565.14197	0.02366
3563.08238	0.02388
3561.02280	0.02416
3558.96321	0.02438
3556.90363	0.02424
3554.84404	0.02381
3552.78446	0.02372
3550.72487	0.02448
3548.66528	0.02583
3546.60570	0.02733
3544.54611	0.02841
3542.48653	0.02860
3540.42694	0.02823
3538.36736	0.02800
3536.30777	0.02839
3534.24819	0.02927
3532.18860	0.02979
3530.12902	0.02945
3528.06943	0.02890
3526.00985	0.02904
3523.95026	0.02994
3521.89068	0.03097
3519.83109	0.03172
3517.77151	0.03229
3515.71192	0.03263
3513.65234	0.03265
3511.59275	0.03266
3509.53317	0.03294
3507.47358	0.03347
3505.41400	0.03424
3503.35441	0.03511
3501.29483	0.03573
3499.23524	0.03568
3497.17565	0.03500
3495.11607	0.03451
3493.05648	0.03476
3490.99690	0.03515
3488.93731	0.03511
3486.87773	0.03518
3484.81814	0.03569
3482.75856	0.03604
3480.69897	0.03604
3478.63939	0.03621
3476.57980	0.03644
3474.52022	0.03629
3472.46063	0.03608
3470.40105	0.03641
3468.34146	0.03717
3466.28188	0.03769
3464.22229	0.03778
3462.16271	0.03787
3460.10312	0.03821
3458.04354	0.03851
3455.98395	0.03876
3453.92437	0.03938
3451.86478	0.04004
3449.80520	0.04006
3447.74561	0.03958
3445.68603	0.03904
3443.62644	0.03882
3441.56685	0.03929
3439.50727	0.04002
3437.44768	0.04040
3435.38810	0.04065
3433.32851	0.04091
3431.26893	0.04128
3429.20934	0.04207
3427.14976	0.04279
3425.09017	0.04295
3423.03059	0.04299
3420.97100	0.04324
3418.91142	0.04349
3416.85183	0.04352
3414.79225	0.04366
3412.73266	0.04412
3410.67308	0.04470
3408.61349	0.04547
3406.55391	0.04625
3404.49432	0.04633
3402.43474	0.04607
3400.37515	0.04627
3398.31557	0.04679
3396.25598	0.04748
3394.19640	0.04804
3392.13681	0.04816
3390.07723	0.04843
3388.01764	0.04907
3385.95805	0.04974
3383.89847	0.05044
3381.83888	0.05097
3379.77930	0.05118
3377.71971	0.05121
3375.66013	0.05135
3373.60054	0.05182
3371.54096	0.05237
3369.48137	0.05286
3367.42179	0.05381
3365.36220	0.05525
3363.30262	0.05637
3361.24303	0.05688
3359.18345	0.05714
3357.12386	0.05747
3355.06428	0.05788
3353.00469	0.05845
3350.94511	0.05954
3348.88552	0.06093
3346.82594	0.06176
3344.76635	0.06206
3342.70677	0.06278
3340.64718	0.06400
3338.58760	0.06489
3336.52801	0.06548
3334.46842	0.06662
3332.40884	0.06824
3330.34925	0.06966
3328.28967	0.07061
3326.23008	0.07138
3324.17050	0.07267
3322.11091	0.07466
3320.05133	0.07680
3317.99174	0.07846
3315.93216	0.07967
3313.87257	0.08086
3311.81299	0.08239
3309.75340	0.08437
3307.69382	0.08644
3305.63423	0.08830
3303.57465	0.09010
3301.51506	0.09211
3299.45548	0.09409
3297.39589	0.09557
3295.33631	0.09706
3293.27672	0.09902
3291.21714	0.10097
3289.15755	0.10247
3287.09797	0.10380
3285.03838	0.10515
3282.97880	0.10624
3280.91921	0.10696
3278.85962	0.10735
3276.80004	0.10755
3274.74045	0.10774
3272.68087	0.10767
3270.62128	0.10730
3268.56170	0.10669
3266.50211	0.10557
3264.44253	0.10416
3262.38294	0.10267
3260.32336	0.10093
3258.26377	0.09916
3256.20419	0.09787
3254.14460	0.09669
3252.08502	0.09489
3250.02543	0.09293
3247.96585	0.09157
3245.90626	0.09018
3243.84668	0.08817
3241.78709	0.08625
3239.72751	0.08485
3237.66792	0.08369
3235.60834	0.08259
3233.54875	0.08151
3231.48917	0.08030
3229.42958	0.07880
3227.36999	0.07706
3225.31041	0.07562
3223.25082	0.07485
3221.19124	0.07413
3219.13165	0.07282
3217.07207	0.07141
3215.01248	0.07031
3212.95290	0.06923
3210.89331	0.06804
3208.83373	0.06693
3206.77414	0.06603
3204.71456	0.06514
3202.65497	0.06404
3200.59539	0.06278
3198.53580	0.06155
3196.47622	0.06043
3194.41663	0.05938
3192.35705	0.05841
3190.29746	0.05755
3188.23788	0.05669
3186.17829	0.05552
3184.11871	0.05429
3182.05912	0.05348
3179.99954	0.05278
3177.93995	0.05173
3175.88037	0.05062
3173.82078	0.04962
3171.76119	0.04862
3169.70161	0.04784
3167.64202	0.04739
3165.58244	0.04689
3163.52285	0.04606
3161.46327	0.04516
3159.40368	0.04438
3157.34410	0.04350
3155.28451	0.04236
3153.22493	0.04136
3151.16534	0.04082
3149.10576	0.04061
3147.04617	0.04056
3144.98659	0.04046
3142.92700	0.04018
3140.86742	0.03973
3138.80783	0.03915
3136.74825	0.03850
3134.68866	0.03795
3132.62908	0.03748
3130.56949	0.03706
3128.50991	0.03708
3126.45032	0.03752
3124.39074	0.03778
3122.33115	0.03764
3120.27156	0.03747
3118.21198	0.03757
3116.15239	0.03789
3114.09281	0.03821
3112.03322	0.03843
3109.97364	0.03848
3107.91405	0.03841
3105.85447	0.03854
3103.79488	0.03896
3101.73530	0.03954
3099.67571	0.04001
3097.61613	0.04028
3095.55654	0.04055
3093.49696	0.04087
3091.43737	0.04131
3089.37779	0.04186
3087.31820	0.04228
3085.25862	0.04251
3083.19903	0.04270
3081.13945	0.04271
3079.07986	0.04252
3077.02028	0.04238
3074.96069	0.04236
3072.90111	0.04233
3070.84152	0.04218
3068.78194	0.04196
3066.72235	0.04148
3064.66276	0.04066
3062.60318	0.04007
3060.54359	0.03977
3058.48401	0.03939
3056.42442	0.03878
3054.36484	0.03808
3052.30525	0.03744
3050.24567	0.03669
3048.18608	0.03588
3046.12650	0.03535
3044.06691	0.03490
3042.00733	0.03427
3039.94774	0.03350
3037.88816	0.03276
3035.82857	0.03228
3033.76899	0.03188
3031.70940	0.03117
3029.64982	0.03027
3027.59023	0.02968
3025.53065	0.02937
3023.47106	0.02893
3021.41148	0.02844
3019.35189	0.02796
3017.29231	0.02734
3015.23272	0.02716
3013.17313	0.02748
3011.11355	0.02730
3009.05396	0.02675
3006.99438	0.02670
3004.93479	0.02699
3002.87521	0.02713
3000.81562	0.02735
2998.75604	0.02785
2996.69645	0.02829
2994.63687	0.02865
2992.57728	0.02929
2990.51770	0.02997
2988.45811	0.03040
2986.39853	0.03068
2984.33894	0.03083
2982.27936	0.03096
2980.21977	0.03114
2978.16019	0.03121
2976.10060	0.03129
2974.04102	0.03153
2971.98143	0.03184
2969.92185	0.03192
2967.86226	0.03166
2965.80268	0.03162
2963.74309	0.03189
2961.68351	0.03181
2959.62392	0.03140
2957.56433	0.03091
2955.50475	0.03041
2953.44516	0.03012
2951.38558	0.03003
2949.32599	0.03019
2947.26641	0.03065
2945.20682	0.03134
2943.14724	0.03229
2941.08765	0.03328
2939.02807	0.03416
2936.96848	0.03479
2934.90890	0.03517
2932.84931	0.03571
2930.78973	0.03619
2928.73014	0.03612
2926.67056	0.03571
2924.61097	0.03515
2922.55139	0.03448
2920.49180	0.03367
2918.43222	0.03275
2916.37263	0.03180
2914.31305	0.03064
2912.25346	0.02918
2910.19388	0.02783
2908.13429	0.02684
2906.07471	0.02634
2904.01512	0.02621
2901.95553	0.02598
2899.89595	0.02551
2897.83636	0.02501
2895.77678	0.02456
2893.71719	0.02422
2891.65761	0.02391
2889.59802	0.02353
2887.53844	0.02318
2885.47885	0.02316
2883.41927	0.02348
2881.35968	0.02388
2879.30010	0.02416
2877.24051	0.02415
2875.18093	0.02378
2873.12134	0.02325
2871.06176	0.02281
2869.00217	0.02243
2866.94259	0.02189
2864.88300	0.02129
2862.82342	0.02108
2860.76383	0.02117
2858.70425	0.02108
2856.64466	0.02090
2854.58508	0.02110
2852.52549	0.02164
2850.46590	0.02179
2848.40632	0.02103
2846.34673	0.01989
2844.28715	0.01907
2842.22756	0.01861
2840.16798	0.01823
2838.10839	0.01774
2836.04881	0.01725
2833.98922	0.01698
2831.92964	0.01687
2829.87005	0.01679
2827.81047	0.01676
2825.75088	0.01669
2823.69130	0.01660
2821.63171	0.01668
2819.57213	0.01680
2817.51254	0.01666
2815.45296	0.01635
2813.39337	0.01604
2811.33379	0.01593
2809.27420	0.01595
2807.21462	0.01564
2805.15503	0.01523
2803.09545	0.01508
2801.03586	0.01493
2798.97628	0.01480
2796.91669	0.01490
2794.85710	0.01505
2792.79752	0.01506
2790.73793	0.01499
2788.67835	0.01493
2786.61876	0.01480
2784.55918	0.01441
2782.49959	0.01398
2780.44001	0.01383
2778.38042	0.01385
2776.32084	0.01382
2774.26125	0.01370
2772.20167	0.01351
2770.14208	0.01345
2768.08250	0.01342
2766.02291	0.01320
2763.96333	0.01295
2761.90374	0.01276
2759.84416	0.01259
2757.78457	0.01257
2755.72499	0.01262
2753.66540	0.01255
2751.60582	0.01250
2749.54623	0.01252
2747.48665	0.01249
2745.42706	0.01238
2743.36747	0.01220
2741.30789	0.01191
2739.24830	0.01151
2737.18872	0.01118
2735.12913	0.01108
2733.06955	0.01111
2731.00996	0.01104
2728.95038	0.01096
2726.89079	0.01103
2724.83121	0.01098
2722.77162	0.01072
2720.71204	0.01050
2718.65245	0.01046
2716.59287	0.01050
2714.53328	0.01049
2712.47370	0.01037
2710.41411	0.01014
2708.35453	0.00983
2706.29494	0.00982
2704.23536	0.01025
2702.17577	0.01055
2700.11619	0.01039
2698.05660	0.00997
2695.99702	0.00974
2693.93743	0.00982
2691.87785	0.00990
2689.81826	0.00982
2687.75867	0.00974
2685.69909	0.00966
2683.63950	0.00948
2681.57992	0.00929
2679.52033	0.00933
2677.46075	0.00958
2675.40116	0.00966
2673.34158	0.00961
2671.28199	0.00968
2669.22241	0.00975
2667.16282	0.00966
2665.10324	0.00954
2663.04365	0.00957
2660.98407	0.00973
2658.92448	0.00985
2656.86490	0.00973
2654.80531	0.00951
2652.74573	0.00957
2650.68614	0.00971
2648.62656	0.00963
2646.56697	0.00948
2644.50739	0.00951
2642.44780	0.00960
2640.38822	0.00973
2638.32863	0.00992
2636.26904	0.00991
2634.20946	0.00951
2632.14987	0.00895
2630.09029	0.00870
2628.03070	0.00884
2625.97112	0.00905
2623.91153	0.00914
2621.85195	0.00912
2619.79236	0.00934
2617.73278	0.00963
2615.67319	0.00911
2613.61361	0.00814
2611.55402	0.00794
2609.49444	0.00847
2607.43485	0.00898
2605.37527	0.00919
2603.31568	0.00911
2601.25610	0.00901
2599.19651	0.00888
2597.13693	0.00835
2595.07734	0.00778
2593.01776	0.00764
2590.95817	0.00768
2588.89859	0.00751
2586.83900	0.00736
2584.77942	0.00755
2582.71983	0.00796
2580.66024	0.00815
2578.60066	0.00803
2576.54107	0.00779
2574.48149	0.00737
2572.42190	0.00686
2570.36232	0.00646
2568.30273	0.00626
2566.24315	0.00626
2564.18356	0.00616
2562.12398	0.00614
2560.06439	0.00648
2558.00481	0.00681
2555.94522	0.00686
2553.88564	0.00670
2551.82605	0.00649
2549.76647	0.00646
2547.70688	0.00651
2545.64730	0.00646
2543.58771	0.00631
2541.52813	0.00621
2539.46854	0.00600
2537.40896	0.00576
2535.34937	0.00579
2533.28979	0.00594
2531.23020	0.00610
2529.17062	0.00601
2527.11103	0.00564
2525.05144	0.00569
2522.99186	0.00635
2520.93227	0.00685
2518.87269	0.00666
2516.81310	0.00618
2514.75352	0.00568
2512.69393	0.00522
2510.63435	0.00523
2508.57476	0.00560
2506.51518	0.00591
2504.45559	0.00613
2502.39601	0.00593
2500.33642	0.00560
2498.27684	0.00578
2496.21725	0.00603
2494.15767	0.00603
2492.09808	0.00610
2490.03850	0.00616
2487.97891	0.00608
2485.91933	0.00612
2483.85974	0.00633
2481.80016	0.00629
2479.74057	0.00609
2477.68099	0.00607
2475.62140	0.00584
2473.56181	0.00536
2471.50223	0.00531
2469.44264	0.00573
2467.38306	0.00588
2465.32347	0.00552
2463.26389	0.00514
2461.20430	0.00509
2459.14472	0.00523
2457.08513	0.00540
2455.02555	0.00559
2452.96596	0.00573
2450.90638	0.00568
2448.84679	0.00542
2446.78721	0.00526
2444.72762	0.00540
2442.66804	0.00581
2440.60845	0.00615
2438.54887	0.00604
2436.48928	0.00575
2434.42970	0.00561
2432.37011	0.00544
2430.31053	0.00506
2428.25094	0.00481
2426.19136	0.00487
2424.13177	0.00499
2422.07219	0.00513
2420.01260	0.00528
2417.95301	0.00519
2415.89343	0.00490
2413.83384	0.00468
2411.77426	0.00469
2409.71467	0.00496
2407.65509	0.00530
2405.59550	0.00542
2403.53592	0.00523
2401.47633	0.00500
2399.41675	0.00479
2397.35716	0.00485
2395.29758	0.00488
2393.23799	0.00477
2391.17841	0.00470
2389.11882	0.00485
2387.05924	0.00530
2384.99965	0.00586
2382.94007	0.00622
2380.88048	0.00649
2378.82090	0.00695
2376.76131	0.00746
2374.70173	0.00779
2372.64214	0.00803
2370.58256	0.00835
2368.52297	0.00877
2366.46338	0.00898
2364.40380	0.00894
2362.34421	0.00905
2360.28463	0.00932
2358.22504	0.00956
2356.16546	0.00979
2354.10587	0.00957
2352.04629	0.00900
2349.98670	0.00883
2347.92712	0.00899
2345.86753	0.00903
2343.80795	0.00893
2341.74836	0.00878
2339.68878	0.00862
2337.62919	0.00843
2335.56961	0.00834
2333.51002	0.00861
2331.45044	0.00899
2329.39085	0.00913
2327.33127	0.00920
2325.27168	0.00928
2323.21210	0.00928
2321.15251	0.00911
2319.09293	0.00859
2317.03334	0.00799
2314.97376	0.00757
2312.91417	0.00737
2310.85458	0.00740
2308.79500	0.00748
2306.73541	0.00724
2304.67583	0.00672
2302.61624	0.00648
2300.55666	0.00674
2298.49707	0.00708
2296.43749	0.00699
2294.37790	0.00673
2292.31832	0.00667
2290.25873	0.00663
2288.19915	0.00653
2286.13956	0.00617
2284.07998	0.00574
2282.02039	0.00591
2279.96081	0.00621
2277.90122	0.00598
2275.84164	0.00559
2273.78205	0.00534
2271.72247	0.00500
2269.66288	0.00464
2267.60330	0.00468
2265.54371	0.00513
2263.48413	0.00551
2261.42454	0.00553
2259.36495	0.00539
2257.30537	0.00540
2255.24578	0.00572
2253.18620	0.00614
2251.12661	0.00606
2249.06703	0.00555
2247.00744	0.00562
2244.94786	0.00545
2242.88827	0.00475
2240.82869	0.00412
2238.76910	0.00395
2236.70952	0.00455
2234.64993	0.00549
2232.59035	0.00615
2230.53076	0.00657
2228.47118	0.00647
2226.41159	0.00540
2224.35201	0.00403
2222.29242	0.00358
2220.23284	0.00438
2218.17325	0.00533
2216.11367	0.00538
2214.05408	0.00488
2211.99450	0.00436
2209.93491	0.00404
2207.87533	0.00398
2205.81574	0.00393
2203.75615	0.00387
2201.69657	0.00387
2199.63698	0.00422
2197.57740	0.00497
2195.51781	0.00530
2193.45823	0.00546
2191.39864	0.00610
2189.33906	0.00632
2187.27947	0.00533
2185.21989	0.00438
2183.16030	0.00444
2181.10072	0.00471
2179.04113	0.00482
2176.98155	0.00513
2174.92196	0.00586
2172.86238	0.00620
2170.80279	0.00517
2168.74321	0.00364
2166.68362	0.00331
2164.62404	0.00471
2162.56445	0.00591
2160.50487	0.00457
2158.44528	0.00175
2156.38570	0.00066
2154.32611	0.00161
2152.26652	0.00264
2150.20694	0.00319
2148.14735	0.00362
2146.08777	0.00374
2144.02818	0.00349
2141.96860	0.00332
2139.90901	0.00329
2137.84943	0.00270
2135.78984	0.00161
2133.73026	0.00128
2131.67067	0.00216
2129.61109	0.00355
2127.55150	0.00430
2125.49192	0.00403
2123.43233	0.00356
2121.37275	0.00355
2119.31316	0.00404
2117.25358	0.00446
2115.19399	0.00474
2113.13441	0.00520
2111.07482	0.00524
2109.01524	0.00495
2106.95565	0.00479
2104.89607	0.00469
2102.83648	0.00503
2100.77690	0.00551
2098.71731	0.00538
2096.65772	0.00474
2094.59814	0.00416
2092.53855	0.00390
2090.47897	0.00386
2088.41938	0.00381
2086.35980	0.00356
2084.30021	0.00338
2082.24063	0.00313
2080.18104	0.00254
2078.12146	0.00240
2076.06187	0.00312
2074.00229	0.00349
2071.94270	0.00312
2069.88312	0.00310
2067.82353	0.00345
2065.76395	0.00348
2063.70436	0.00345
2061.64478	0.00358
2059.58519	0.00429
2057.52561	0.00529
2055.46602	0.00517
2053.40644	0.00453
2051.34685	0.00482
2049.28727	0.00532
2047.22768	0.00531
2045.16810	0.00507
2043.10851	0.00443
2041.04892	0.00373
2038.98934	0.00379
2036.92975	0.00408
2034.87017	0.00401
2032.81058	0.00428
2030.75100	0.00450
2028.69141	0.00394
2026.63183	0.00335
2024.57224	0.00291
2022.51266	0.00273
2020.45307	0.00312
2018.39349	0.00300
2016.33390	0.00199
2014.27432	0.00129
2012.21473	0.00145
2010.15515	0.00185
2008.09556	0.00190
2006.03598	0.00178
2003.97639	0.00182
2001.91681	0.00241
1999.85722	0.00343
1997.79764	0.00374
1995.73805	0.00345
1993.67847	0.00329
1991.61888	0.00302
1989.55929	0.00304
1987.49971	0.00389
1985.44012	0.00468
1983.38054	0.00489
1981.32095	0.00487
1979.26137	0.00445
1977.20178	0.00381
1975.14220	0.00343
1973.08261	0.00321
1971.02303	0.00308
1968.96344	0.00274
1966.90386	0.00200
1964.84427	0.00157
1962.78469	0.00166
1960.72510	0.00184
1958.66552	0.00181
1956.60593	0.00139
1954.54635	0.00135
1952.48676	0.00234
1950.42718	0.00322
1948.36759	0.00303
1946.30801	0.00239
1944.24842	0.00229
1942.18884	0.00282
1940.12925	0.00301
1938.06967	0.00252
1936.01008	0.00219
1933.95049	0.00252
1931.89091	0.00300
1929.83132	0.00313
1927.77174	0.00296
1925.71215	0.00271
1923.65257	0.00261
1921.59298	0.00277
1919.53340	0.00285
1917.47381	0.00260
1915.41423	0.00252
1913.35464	0.00275
1911.29506	0.00278
1909.23547	0.00258
1907.17589	0.00246
1905.11630	0.00239
1903.05672	0.00236
1900.99713	0.00248
1898.93755	0.00266
1896.87796	0.00280
1894.81838	0.00296
1892.75879	0.00314
1890.69921	0.00333
1888.63962	0.00340
1886.58004	0.00323
1884.52045	0.00297
1882.46086	0.00275
1880.40128	0.00278
1878.34169	0.00310
1876.28211	0.00341
1874.22252	0.00343
1872.16294	0.00330
1870.10335	0.00335
1868.04377	0.00347
1865.98418	0.00327
1863.92460	0.00290
1861.86501	0.00269
1859.80543	0.00270
1857.74584	0.00283
1855.68626	0.00286
1853.62667	0.00270
1851.56709	0.00265
1849.50750	0.00285
1847.44792	0.00312
1845.38833	0.00333
1843.32875	0.00345
1841.26916	0.00352
1839.20958	0.00355
1837.14999	0.00356
1835.09041	0.00355
1833.03082	0.00364
1830.97124	0.00373
1828.91165	0.00351
1826.85206	0.00315
1824.79248	0.00311
1822.73289	0.00325
1820.67331	0.00323
1818.61372	0.00315
1816.55414	0.00318
1814.49455	0.00334
1812.43497	0.00357
1810.37538	0.00376
1808.31580	0.00382
1806.25621	0.00375
1804.19663	0.00370
1802.13704	0.00376
1800.07746	0.00390
1798.01787	0.00404
1795.95829	0.00424
1793.89870	0.00443
1791.83912	0.00446
1789.77953	0.00437
1787.71995	0.00434
1785.66036	0.00436
1783.60078	0.00441
1781.54119	0.00451
1779.48161	0.00459
1777.42202	0.00464
1775.36243	0.00459
1773.30285	0.00438
1771.24326	0.00428
1769.18368	0.00448
1767.12409	0.00472
1765.06451	0.00483
1763.00492	0.00489
1760.94534	0.00493
1758.88575	0.00496
1756.82617	0.00499
1754.76658	0.00507
1752.70700	0.00535
1750.64741	0.00591
1748.58783	0.00637
1746.52824	0.00643
1744.46866	0.00639
1742.40907	0.00649
1740.34949	0.00658
1738.28990	0.00655
1736.23032	0.00663
1734.17073	0.00687
1732.11115	0.00708
1730.05156	0.00720
1727.99198	0.00734
1725.93239	0.00756
1723.87281	0.00788
1721.81322	0.00823
1719.75363	0.00863
1717.69405	0.00938
1715.63446	0.01052
1713.57488	0.01170
1711.51529	0.01303
1709.45571	0.01498
1707.39612	0.01810
1705.33654	0.02238
1703.27695	0.02672
1701.21737	0.03049
1699.15778	0.03349
1697.09820	0.03514
1695.03861	0.03592
1692.97903	0.03669
1690.91944	0.03782
1688.85986	0.03926
1686.80027	0.04090
1684.74069	0.04308
1682.68110	0.04558
1680.62152	0.04752
1678.56193	0.04908
1676.50235	0.05088
1674.44276	0.05308
1672.38318	0.05535
1670.32359	0.05783
1668.26401	0.06051
1666.20442	0.06282
1664.14483	0.06495
1662.08525	0.06726
1660.02566	0.06951
1657.96608	0.07153
1655.90649	0.07355
1653.84691	0.07591
1651.78732	0.07822
1649.72774	0.07966
1647.66815	0.08085
1645.60857	0.08224
1643.54898	0.08345
1641.48940	0.08449
1639.42981	0.08569
1637.37023	0.08740
1635.31064	0.08972
1633.25106	0.09201
1631.19147	0.09417
1629.13189	0.09673
1627.07230	0.09967
1625.01272	0.10248
1622.95313	0.10478
1620.89355	0.10617
1618.83396	0.10645
1616.77438	0.10530
1614.71479	0.10284
1612.65520	0.09984
1610.59562	0.09617
1608.53603	0.09147
1606.47645	0.08602
1604.41686	0.08029
1602.35728	0.07463
1600.29769	0.06949
1598.23811	0.06511
1596.17852	0.06132
1594.11894	0.05792
1592.05935	0.05489
1589.99977	0.05234
1587.94018	0.05038
1585.88060	0.04901
1583.82101	0.04819
1581.76143	0.04789
1579.70184	0.04805
1577.64226	0.04865
1575.58267	0.04971
1573.52309	0.05105
1571.46350	0.05272
1569.40392	0.05480
1567.34433	0.05683
1565.28475	0.05861
1563.22516	0.06033
1561.16558	0.06248
1559.10599	0.06568
1557.04640	0.06879
1554.98682	0.07075
1552.92723	0.07245
1550.86765	0.07433
1548.80806	0.07631
1546.74848	0.07834
1544.68889	0.08054
1542.62931	0.08289
1540.56972	0.08517
1538.51014	0.08703
1536.45055	0.08836
1534.39097	0.08976
1532.33138	0.09143
1530.27180	0.09292
1528.21221	0.09425
1526.15263	0.09551
1524.09304	0.09651
1522.03346	0.09732
1519.97387	0.09820
1517.91429	0.09925
1515.85470	0.10019
1513.79512	0.10077
1511.73553	0.10106
1509.67595	0.10092
1507.61636	0.09964
1505.55677	0.09718
1503.49719	0.09503
1501.43760	0.09330
1499.37802	0.09113
1497.31843	0.08810
1495.25885	0.08477
1493.19926	0.08189
1491.13968	0.07884
1489.08009	0.07493
1487.02051	0.07092
1484.96092	0.06760
1482.90134	0.06471
1480.84175	0.06197
1478.78217	0.05963
1476.72258	0.05790
1474.66300	0.05652
1472.60341	0.05509
1470.54383	0.05375
1468.48424	0.05299
1466.42466	0.05279
1464.36507	0.05289
1462.30549	0.05313
1460.24590	0.05365
1458.18632	0.05487
1456.12673	0.05676
1454.06715	0.05855
1452.00756	0.06008
1449.94797	0.06149
1447.88839	0.06251
1445.82880	0.06287
1443.76922	0.06276
1441.70963	0.06249
1439.65005	0.06194
1437.59046	0.06069
1435.53088	0.05872
1433.47129	0.05669
1431.41171	0.05483
1429.35212	0.05309
1427.29254	0.05177
1425.23295	0.05105
1423.17337	0.05078
1421.11378	0.05086
1419.05420	0.05130
1416.99461	0.05187
1414.93503	0.05233
1412.87544	0.05276
1410.81586	0.05317
1408.75627	0.05342
1406.69669	0.05342
1404.63710	0.05311
1402.57752	0.05254
1400.51793	0.05194
1398.45834	0.05146
1396.39876	0.05106
1394.33917	0.05062
1392.27959	0.05019
1390.22000	0.04994
1388.16042	0.04980
1386.10083	0.04964
1384.04125	0.04943
1381.98166	0.04912
1379.92208	0.04874
1377.86249	0.04846
1375.80291	0.04831
1373.74332	0.04811
1371.68374	0.04777
1369.62415	0.04725
1367.56457	0.04655
1365.50498	0.04567
1363.44540	0.04454
1361.38581	0.04316
1359.32623	0.04179
1357.26664	0.04067
1355.20706	0.03987
1353.14747	0.03938
1351.08789	0.03918
1349.02830	0.03922
1346.96872	0.03939
1344.90913	0.03969
1342.84954	0.04015
1340.78996	0.04067
1338.73037	0.04103
1336.67079	0.04109
1334.61120	0.04093
1332.55162	0.04064
1330.49203	0.04020
1328.43245	0.03964
1326.37286	0.03897
1324.31328	0.03824
1322.25369	0.03751
1320.19411	0.03691
1318.13452	0.03647
1316.07494	0.03622
1314.01535	0.03618
1311.95577	0.03621
1309.89618	0.03616
1307.83660	0.03601
1305.77701	0.03586
1303.71743	0.03578
1301.65784	0.03575
1299.59826	0.03577
1297.53867	0.03577
1295.47909	0.03575
1293.41950	0.03576
1291.35991	0.03589
1289.30033	0.03614
1287.24074	0.03642
1285.18116	0.03675
1283.12157	0.03723
1281.06199	0.03788
1279.00240	0.03873
1276.94282	0.03975
1274.88323	0.04088
1272.82365	0.04212
1270.76406	0.04340
1268.70448	0.04460
1266.64489	0.04558
1264.58531	0.04627
1262.52572	0.04671
1260.46614	0.04706
1258.40655	0.04738
1256.34697	0.04771
1254.28738	0.04812
1252.22780	0.04865
1250.16821	0.04928
1248.10863	0.05000
1246.04904	0.05082
1243.98946	0.05177
1241.92987	0.05285
1239.87029	0.05395
1237.81070	0.05501
1235.75111	0.05600
1233.69153	0.05681
1231.63194	0.05735
1229.57236	0.05760
1227.51277	0.05758
1225.45319	0.05715
1223.39360	0.05630
1221.33402	0.05525
1219.27443	0.05406
1217.21485	0.05260
1215.15526	0.05087
1213.09568	0.04900
1211.03609	0.04706
1208.97651	0.04497
1206.91692	0.04281
1204.85734	0.04076
1202.79775	0.03884
1200.73817	0.03700
1198.67858	0.03532
1196.61900	0.03391
1194.55941	0.03277
1192.49983	0.03183
1190.44024	0.03106
1188.38066	0.03042
1186.32107	0.03001
1184.26149	0.02986
1182.20190	0.02986
1180.14231	0.03007
1178.08273	0.03068
1176.02314	0.03168
1173.96356	0.03282
1171.90397	0.03383
1169.84439	0.03457
1167.78480	0.03502
1165.72522	0.03530
1163.66563	0.03537
1161.60605	0.03515
1159.54646	0.03474
1157.48688	0.03418
1155.42729	0.03335
1153.36771	0.03229
1151.30812	0.03111
1149.24854	0.02994
1147.18895	0.02885
1145.12937	0.02782
1143.06978	0.02692
1141.01020	0.02616
1138.95061	0.02549
1136.89103	0.02493
1134.83144	0.02443
1132.77186	0.02392
1130.71227	0.02349
1128.65268	0.02320
1126.59310	0.02297
1124.53351	0.02272
1122.47393	0.02247
1120.41434	0.02235
1118.35476	0.02235
1116.29517	0.02238
1114.23559	0.02242
1112.17600	0.02245
1110.11642	0.02245
1108.05683	0.02255
1105.99725	0.02266
1103.93766	0.02268
1101.87808	0.02273
1099.81849	0.02272
1097.75891	0.02259
1095.69932	0.02256
1093.63974	0.02276
1091.58015	0.02319
1089.52057	0.02375
1087.46098	0.02444
1085.40140	0.02527
1083.34181	0.02617
1081.28223	0.02702
1079.22264	0.02785
1077.16306	0.02869
1075.10347	0.02940
1073.04388	0.02994
1070.98430	0.03035
1068.92471	0.03068
1066.86513	0.03089
1064.80554	0.03097
1062.74596	0.03086
1060.68637	0.03060
1058.62679	0.03028
1056.56720	0.02996
1054.50762	0.02964
1052.44803	0.02923
1050.38845	0.02867
1048.32886	0.02816
1046.26928	0.02774
1044.20969	0.02731
1042.15011	0.02685
1040.09052	0.02635
1038.03094	0.02579
1035.97135	0.02523
1033.91177	0.02458
1031.85218	0.02387
1029.79260	0.02324
1027.73301	0.02271
1025.67343	0.02228
1023.61384	0.02210
1021.55425	0.02226
1019.49467	0.02267
1017.43508	0.02316
1015.37550	0.02360
1013.31591	0.02379
1011.25633	0.02366
1009.19674	0.02344
1007.13716	0.02333
1005.07757	0.02332
1003.01799	0.02335
1000.95840	0.02328
998.89882	0.02295
996.83923	0.02235
994.77965	0.02163
992.72006	0.02078
990.66048	0.01978
988.60089	0.01878
986.54131	0.01806
984.48172	0.01783
982.42214	0.01809
980.36255	0.01860
978.30297	0.01901
976.24338	0.01919
974.18380	0.01917
972.12421	0.01886
970.06463	0.01830
968.00504	0.01771
965.94545	0.01721
963.88587	0.01684
961.82628	0.01659
959.76670	0.01640
957.70711	0.01623
955.64753	0.01605
953.58794	0.01590
951.52836	0.01577
949.46877	0.01565
947.40919	0.01551
945.34960	0.01535
943.29002	0.01527
941.23043	0.01522
939.17085	0.01511
937.11126	0.01506
935.05168	0.01507
932.99209	0.01507
930.93251	0.01514
928.87292	0.01519
926.81334	0.01501
924.75375	0.01463
922.69417	0.01424
920.63458	0.01397
918.57500	0.01370
916.51541	0.01329
914.45582	0.01284
912.39624	0.01247
910.33665	0.01220
908.27707	0.01206
906.21748	0.01203
904.15790	0.01200
902.09831	0.01194
900.03873	0.01185
897.97914	0.01187
895.91956	0.01198
893.85997	0.01198
891.80039	0.01187
889.74080	0.01179
887.68122	0.01179
885.62163	0.01177
883.56205	0.01175
881.50246	0.01185
879.44288	0.01195
877.38329	0.01189
875.32371	0.01177
873.26412	0.01175
871.20454	0.01180
869.14495	0.01189
867.08537	0.01208
865.02578	0.01231
862.96620	0.01243
860.90661	0.01264
858.84702	0.01311
856.78744	0.01363
854.72785	0.01394
852.66827	0.01408
850.60868	0.01417
848.54910	0.01430
846.48951	0.01440
844.42993	0.01441
842.37034	0.01439
840.31076	0.01440
838.25117	0.01457
836.19159	0.01491
834.13200	0.01532
832.07242	0.01579
830.01283	0.01606
827.95325	0.01601
825.89366	0.01595
823.83408	0.01601
821.77449	0.01604
819.71491	0.01597
817.65532	0.01594
815.59574	0.01604
813.53615	0.01622
811.47657	0.01633
809.41698	0.01643
807.35740	0.01664
805.29781	0.01684
803.23822	0.01692
801.17864	0.01694
799.11905	0.01694
797.05947	0.01693
794.99988	0.01700
792.94030	0.01712
790.88071	0.01724
788.82113	0.01755
786.76154	0.01803
784.70196	0.01832
782.64237	0.01843
780.58279	0.01864
778.52320	0.01896
776.46362	0.01935
774.40403	0.01980
772.34445	0.02023
770.28486	0.02065
768.22528	0.02101
766.16569	0.02117
764.10611	0.02122
762.04652	0.02136
759.98694	0.02164
757.92735	0.02190
755.86777	0.02214
753.80818	0.02245
751.74859	0.02277
749.68901	0.02315
747.62942	0.02359
745.56984	0.02397
743.51025	0.02441
741.45067	0.02491
739.39108	0.02531
737.33150	0.02571
735.27191	0.02621
733.21233	0.02678
731.15274	0.02737
729.09316	0.02801
727.03357	0.02864
724.97399	0.02912
722.91440	0.02941
720.85482	0.02965
718.79523	0.03003
716.73565	0.03045
714.67606	0.03074
712.61648	0.03103
710.55689	0.03145
708.49731	0.03199
706.43772	0.03250
704.37814	0.03291
702.31855	0.03326
700.25897	0.03353
698.19938	0.03367
696.13979	0.03373
694.08021	0.03395
692.02062	0.03432
689.96104	0.03455
687.90145	0.03458
685.84187	0.03464
683.78228	0.03479
681.72270	0.03490
679.66311	0.03485
677.60353	0.03476
675.54394	0.03475
673.48436	0.03476
671.42477	0.03477
669.36519	0.03480
667.30560	0.03487
665.24602	0.03499
663.18643	0.03519
661.12685	0.03532
659.06726	0.03537
657.00768	0.03541
654.94809	0.03546
652.88851	0.03550
650.82892	0.03557
648.76934	0.03568
646.70975	0.03578
644.65016	0.03583
642.59058	0.03581
640.53099	0.03572
638.47141	0.03571
636.41182	0.03578
634.35224	0.03582
632.29265	0.03587
630.23307	0.03595
628.17348	0.03595
626.11390	0.03586
624.05431	0.03575
621.99473	0.03579
619.93514	0.03593
617.87556	0.03595
615.81597	0.03588
613.75639	0.03581
611.69680	0.03585
609.63722	0.03609
607.57763	0.03625
605.51805	0.03603
603.45846	0.03570
601.39888	0.03553
599.33929	0.03542
597.27971	0.03520
595.22012	0.03490
593.16054	0.03466
591.10095	0.03456
589.04136	0.03455
586.98178	0.03461
584.92219	0.03469
582.86261	0.03466
580.80302	0.03452
578.74344	0.03437
576.68385	0.03430
574.62427	0.03439
572.56468	0.03457
570.50510	0.03473
568.44551	0.03488
566.38593	0.03511
564.32634	0.03534
562.26676	0.03557
560.20717	0.03587
558.14759	0.03628
556.08800	0.03678
554.02842	0.03724
551.96883	0.03764
549.90925	0.03804
547.84966	0.03836
545.79008	0.03846
543.73049	0.03842
541.67091	0.03833
539.61132	0.03816
537.55173	0.03793
535.49215	0.03762
533.43256	0.03735
531.37298	0.03718
529.31339	0.03706
527.25381	0.03688
525.19422	0.03653
523.13464	0.03614
521.07505	0.03587
519.01547	0.03574
516.95588	0.03585
514.89630	0.03602
512.83671	0.03589
510.77713	0.03570
508.71754	0.03561
506.65796	0.03547
504.59837	0.03516
502.53879	0.03484
500.47920	0.03482
498.41962	0.03494
496.36003	0.03481
494.30045	0.03451
492.24086	0.03439
490.18128	0.03436
488.12169	0.03421
486.06211	0.03400
484.00252	0.03385
481.94293	0.03374
479.88335	0.03367
477.82376	0.03346
475.76418	0.03304
473.70459	0.03266
471.64501	0.03237
469.58542	0.03214
467.52584	0.03217
465.46625	0.03241
463.40667	0.03242
461.34708	0.03213
459.28750	0.03182
457.22791	0.03164
455.16833	0.03165
453.10874	0.03170
451.04916	0.03160
448.98957	0.03131
446.92999	0.03097
444.87040	0.03076
442.81082	0.03070
440.75123	0.03067
438.69165	0.03067
436.63206	0.03061
434.57248	0.03034
432.51289	0.03016
430.45330	0.03055
428.39372	0.03124
426.33413	0.03151
424.27455	0.03127
422.21496	0.03103
420.15538	0.03111
418.09579	0.03124
416.03621	0.03105
413.97662	0.03071
411.91704	0.03038
409.85745	0.03014
407.79787	0.03003
405.73828	0.02984
403.67870	0.02956
401.61911	0.02925
399.55953	0.02889
