3997.65486	0.04948
3995.59527	0.04946
3993.53569	0.04934
3991.47610	0.04936
3989.41652	0.04934
3987.35693	0.04879
3985.29735	0.04805
3983.23776	0.04779
3981.17817	0.04805
3979.11859	0.04853
3977.05900	0.04877
3974.99942	0.04858
3972.93983	0.04844
3970.88025	0.04836
3968.82066	0.04779
3966.76108	0.04701
3964.70149	0.04687
3962.64191	0.04756
3960.58232	0.04831
3958.52274	0.04823
3956.46315	0.04744
3954.40357	0.04680
3952.34398	0.04690
3950.28440	0.04753
3948.22481	0.04797
3946.16523	0.04792
3944.10564	0.04751
3942.04606	0.04704
3939.98647	0.04684
3937.92689	0.04699
3935.86730	0.04745
3933.80772	0.04804
3931.74813	0.04828
3929.68855	0.04804
3927.62896	0.04770
3925.56937	0.04740
3923.50979	0.04738
3921.45020	0.04784
3919.39062	0.04828
3917.33103	0.04817
3915.27145	0.04759
3913.21186	0.04691
3911.15228	0.04637
3909.09269	0.04622
3907.03311	0.04652
3904.97352	0.04671
3902.91394	0.04624
3900.85435	0.04568
3898.79477	0.04562
3896.73518	0.04558
3894.67560	0.04552
3892.61601	0.04574
3890.55643	0.04584
3888.49684	0.04551
3886.43726	0.04522
3884.37767	0.04522
3882.31809	0.04521
3880.25850	0.04529
3878.19892	0.04560
3876.13933	0.04604
3874.07974	0.04636
3872.02016	0.04630
3869.96057	0.04603
3867.90099	0.04569
3865.84140	0.04506
3863.78182	0.04447
3861.72223	0.04439
3859.66265	0.04451
3857.60306	0.04454
3855.54348	0.04458
3853.48389	0.04470
3851.42431	0.04471
3849.36472	0.04460
3847.30514	0.04446
3845.24555	0.04431
3843.18597	0.04436
3841.12638	0.04463
3839.06680	0.04469
3837.00721	0.04437
3834.94763	0.04393
3832.88804	0.04389
3830.82846	0.04433
3828.76887	0.04480
3826.70929	0.04507
3824.64970	0.04497
3822.59012	0.04461
3820.53053	0.04443
3818.47094	0.04426
3816.41136	0.04386
3814.35177	0.04337
3812.29219	0.04293
3810.23260	0.04279
3808.17302	0.04311
3806.11343	0.04362
3804.05385	0.04356
3801.99426	0.04282
3799.93468	0.04224
3797.87509	0.04236
3795.81551	0.04297
3793.75592	0.04319
3791.69634	0.04243
3789.63675	0.04147
3787.57717	0.04128
3785.51758	0.04174
3783.45800	0.04223
3781.39841	0.04238
3779.33883	0.04206
3777.27924	0.04183
3775.21966	0.04223
3773.16007	0.04272
3771.10049	0.04263
3769.04090	0.04223
3766.98132	0.04223
3764.92173	0.04248
3762.86214	0.04220
3760.80256	0.04161
3758.74297	0.04148
3756.68339	0.04191
3754.62380	0.04260
3752.56422	0.04287
3750.50463	0.04218
3748.44505	0.04115
3746.38546	0.04115
3744.32588	0.04224
3742.26629	0.04254
3740.20671	0.04170
3738.14712	0.04107
3736.08754	0.04115
3734.02795	0.04153
3731.96837	0.04161
3729.90878	0.04115
3727.84920	0.04083
3725.78961	0.04107
3723.73003	0.04137
3721.67044	0.04123
3719.61086	0.04070
3717.55127	0.04008
3715.49169	0.03943
3713.43210	0.03856
3711.37251	0.03780
3709.31293	0.03788
3707.25334	0.03860
3705.19376	0.03922
3703.13417	0.03954
3701.07459	0.03970
3699.01500	0.03980
3696.95542	0.03968
3694.89583	0.03944
3692.83625	0.03969
3690.77666	0.04053
3688.71708	0.04100
3686.65749	0.04078
3684.59791	0.04077
3682.53832	0.04149
3680.47874	0.04287
3678.41915	0.04399
3676.35957	0.04354
3674.29998	0.04202
3672.24040	0.04136
3670.18081	0.04200
3668.12123	0.04321
3666.06164	0.04405
3664.00206	0.04450
3661.94247	0.04495
3659.88289	0.04531
3657.82330	0.04559
3655.76371	0.04629
3653.70413	0.04718
3651.64454	0.04769
3649.58496	0.04789
3647.52537	0.04787
3645.46579	0.04760
3643.40620	0.04739
3641.34662	0.04778
3639.28703	0.04898
3637.22745	0.05045
3635.16786	0.05152
3633.10828	0.05183
3631.04869	0.05176
3628.98911	0.05252
3626.92952	0.05422
3624.86994	0.05561
3622.81035	0.05649
3620.75077	0.05756
3618.69118	0.05902
3616.63160	0.06008
3614.57201	0.06046
3612.51243	0.06079
3610.45284	0.06143
3608.39326	0.06251
3606.33367	0.06383
3604.27408	0.06510
3602.21450	0.06646
3600.15491	0.06777
3598.09533	0.06854
3596.03574	0.06911
3593.97616	0.07011
3591.91657	0.07116
3589.85699	0.07198
3587.79740	0.07313
3585.73782	0.07455
3583.67823	0.07575
3581.61865	0.07678
3579.55906	0.07793
3577.49948	0.07898
3575.43989	0.07962
3573.38031	0.08002
3571.32072	0.08063
3569.26114	0.08178
3567.20155	0.08334
3565.14197	0.08474
3563.08238	0.08560
3561.02280	0.08631
3558.96321	0.08748
3556.90363	0.08903
3554.84404	0.09043
3552.78446	0.09165
3550.72487	0.09304
3548.66528	0.09472
3546.60570	0.09624
3544.54611	0.09707
3542.48653	0.09750
3540.42694	0.09822
3538.36736	0.09941
3536.30777	0.10078
3534.24819	0.10217
3532.18860	0.10352
3530.12902	0.10457
3528.06943	0.10534
3526.00985	0.10639
3523.95026	0.10786
3521.89068	0.10937
3519.83109	0.11059
3517.77151	0.11130
3515.71192	0.11188
3513.65234	0.11282
3511.59275	0.11388
3509.53317	0.11481
3507.47358	0.11565
3505.41400	0.11656
3503.35441	0.11773
3501.29483	0.11900
3499.23524	0.12015
3497.17565	0.12113
3495.11607	0.12198
3493.05648	0.12262
3490.99690	0.12291
3488.93731	0.12339
3486.87773	0.12470
3484.81814	0.12666
3482.75856	0.12865
3480.69897	0.13029
3478.63939	0.13148
3476.57980	0.13229
3474.52022	0.13302
3472.46063	0.13410
3470.40105	0.13554
3468.34146	0.13669
3466.28188	0.13741
3464.22229	0.13827
3462.16271	0.13930
3460.10312	0.14018
3458.04354	0.14107
3455.98395	0.14213
3453.92437	0.14313
3451.86478	0.14408
3449.80520	0.14509
3447.74561	0.14636
3445.68603	0.14784
3443.62644	0.14878
3441.56685	0.14908
3439.50727	0.14962
3437.44768	0.15105
3435.38810	0.15277
3433.32851	0.15381
3431.26893	0.15468
3429.20934	0.15588
3427.14976	0.15680
3425.09017	0.15763
3423.03059	0.15882
3420.97100	0.15995
3418.91142	0.16085
3416.85183	0.16179
3414.79225	0.16268
3412.73266	0.16331
3410.67308	0.16408
3408.61349	0.16509
3406.55391	0.16615
3404.49432	0.16751
3402.43474	0.16885
3400.37515	0.16966
3398.31557	0.17041
3396.25598	0.17154
3394.19640	0.17266
3392.13681	0.17347
3390.07723	0.17417
3388.01764	0.17504
3385.95805	0.17621
3383.89847	0.17762
3381.83888	0.17864
3379.77930	0.17921
3377.71971	0.18008
3375.66013	0.18132
3373.60054	0.18252
3371.54096	0.18371
3369.48137	0.18516
3367.42179	0.18685
3365.36220	0.18852
3363.30262	0.18998
3361.24303	0.19125
3359.18345	0.19247
3357.12386	0.19359
3355.06428	0.19460
3353.00469	0.19608
3350.94511	0.19846
3348.88552	0.20092
3346.82594	0.20281
3344.76635	0.20432
3342.70677	0.20578
3340.64718	0.20757
3338.58760	0.20977
3336.52801	0.21181
3334.46842	0.21343
3332.40884	0.21520
3330.34925	0.21727
3328.28967	0.21947
3326.23008	0.22189
3324.17050	0.22428
3322.11091	0.22628
3320.05133	0.22811
3317.99174	0.23021
3315.93216	0.23257
3313.87257	0.23513
3311.81299	0.23804
3309.75340	0.24129
3307.69382	0.24440
3305.63423	0.24715
3303.57465	0.24968
3301.51506	0.25202
3299.45548	0.25424
3297.39589	0.25652
3295.33631	0.25876
3293.27672	0.26084
3291.21714	0.26288
3289.15755	0.26492
3287.09797	0.26666
3285.03838	0.26788
3282.97880	0.26859
3280.91921	0.26894
3278.85962	0.26933
3276.80004	0.26955
3274.74045	0.26893
3272.68087	0.26770
3270.62128	0.26644
3268.56170	0.26474
3266.50211	0.26242
3264.44253	0.25999
3262.38294	0.25779
3260.32336	0.25561
3258.26377	0.25294
3256.20419	0.24977
3254.14460	0.24689
3252.08502	0.24464
3250.02543	0.24242
3247.96585	0.23993
3245.90626	0.23731
3243.84668	0.23450
3241.78709	0.23169
3239.72751	0.22933
3237.66792	0.22733
3235.60834	0.22536
3233.54875	0.22334
3231.48917	0.22105
3229.42958	0.21850
3227.36999	0.21629
3225.31041	0.21453
3223.25082	0.21289
3221.19124	0.21140
3219.13165	0.21010
3217.07207	0.20883
3215.01248	0.20760
3212.95290	0.20630
3210.89331	0.20469
3208.83373	0.20315
3206.77414	0.20192
3204.71456	0.20053
3202.65497	0.19886
3200.59539	0.19733
3198.53580	0.19607
3196.47622	0.19462
3194.41663	0.19271
3192.35705	0.19088
3190.29746	0.18959
3188.23788	0.18837
3186.17829	0.18648
3184.11871	0.18419
3182.05912	0.18219
3179.99954	0.18043
3177.93995	0.17845
3175.88037	0.17619
3173.82078	0.17414
3171.76119	0.17238
3169.70161	0.17052
3167.64202	0.16842
3165.58244	0.16629
3163.52285	0.16422
3161.46327	0.16217
3159.40368	0.16014
3157.34410	0.15813
3155.28451	0.15638
3153.22493	0.15485
3151.16534	0.15310
3149.10576	0.15123
3147.04617	0.14946
3144.98659	0.14779
3142.92700	0.14610
3140.86742	0.14428
3138.80783	0.14284
3136.74825	0.14194
3134.68866	0.14102
3132.62908	0.13979
3130.56949	0.13833
3128.50991	0.13669
3126.45032	0.13511
3124.39074	0.13390
3122.33115	0.13306
3120.27156	0.13254
3118.21198	0.13212
3116.15239	0.13146
3114.09281	0.13075
3112.03322	0.13044
3109.97364	0.13046
3107.91405	0.13036
3105.85447	0.12989
3103.79488	0.12928
3101.73530	0.12888
3099.67571	0.12873
3097.61613	0.12863
3095.55654	0.12852
3093.49696	0.12849
3091.43737	0.12870
3089.37779	0.12911
3087.31820	0.12936
3085.25862	0.12923
3083.19903	0.12907
3081.13945	0.12930
3079.07986	0.12965
3077.02028	0.12949
3074.96069	0.12915
3072.90111	0.12927
3070.84152	0.12959
3068.78194	0.12969
3066.72235	0.12946
3064.66276	0.12872
3062.60318	0.12760
3060.54359	0.12658
3058.48401	0.12573
3056.42442	0.12500
3054.36484	0.12424
3052.30525	0.12321
3050.24567	0.12195
3048.18608	0.12078
3046.12650	0.11982
3044.06691	0.11862
3042.00733	0.11704
3039.94774	0.11553
3037.88816	0.11435
3035.82857	0.11342
3033.76899	0.11227
3031.70940	0.11080
3029.64982	0.10943
3027.59023	0.10808
3025.53065	0.10661
3023.47106	0.10543
3021.41148	0.10464
3019.35189	0.10390
3017.29231	0.10291
3015.23272	0.10174
3013.17313	0.10082
3011.11355	0.10027
3009.05396	0.09960
3006.99438	0.09873
3004.93479	0.09806
3002.87521	0.09761
3000.81562	0.09747
2998.75604	0.09785
2996.69645	0.09840
2994.63687	0.09879
2992.57728	0.09946
2990.51770	0.10050
2988.45811	0.10163
2986.39853	0.10312
2984.33894	0.10513
2982.27936	0.10706
2980.21977	0.10871
2978.16019	0.11085
2976.10060	0.11375
2974.04102	0.11660
2971.98143	0.11888
2969.92185	0.12111
2967.86226	0.12360
2965.80268	0.12599
2963.74309	0.12793
2961.68351	0.12905
2959.62392	0.12912
2957.56433	0.12831
2955.50475	0.12715
2953.44516	0.12587
2951.38558	0.12399
2949.32599	0.12174
2947.26641	0.12060
2945.20682	0.12117
2943.14724	0.12265
2941.08765	0.12446
2939.02807	0.12670
2936.96848	0.12913
2934.90890	0.13159
2932.84931	0.13409
2930.78973	0.13622
2928.73014	0.13780
2926.67056	0.13920
2924.61097	0.14060
2922.55139	0.14191
2920.49180	0.14277
2918.43222	0.14224
2916.37263	0.13936
2914.31305	0.13396
2912.25346	0.12737
2910.19388	0.12136
2908.13429	0.11676
2906.07471	0.11360
2904.01512	0.11137
2901.95553	0.10965
2899.89595	0.10805
2897.83636	0.10628
2895.77678	0.10472
2893.71719	0.10351
2891.65761	0.10248
2889.59802	0.10166
2887.53844	0.10108
2885.47885	0.10067
2883.41927	0.10068
2881.35968	0.10119
2879.30010	0.10181
2877.24051	0.10246
2875.18093	0.10320
2873.12134	0.10334
2871.06176	0.10230
2869.00217	0.10041
2866.94259	0.09828
2864.88300	0.09663
2862.82342	0.09577
2860.76383	0.09559
2858.70425	0.09592
2856.64466	0.09677
2854.58508	0.09835
2852.52549	0.10070
2850.46590	0.10229
2848.40632	0.10056
2846.34673	0.09553
2844.28715	0.08978
2842.22756	0.08526
2840.16798	0.08232
2838.10839	0.08028
2836.04881	0.07865
2833.98922	0.07750
2831.92964	0.07663
2829.87005	0.07555
2827.81047	0.07444
2825.75088	0.07379
2823.69130	0.07351
2821.63171	0.07306
2819.57213	0.07229
2817.51254	0.07154
2815.45296	0.07111
2813.39337	0.07087
2811.33379	0.07050
2809.27420	0.06997
2807.21462	0.06958
2805.15503	0.06941
2803.09545	0.06911
2801.03586	0.06853
2798.97628	0.06781
2796.91669	0.06714
2794.85710	0.06680
2792.79752	0.06667
2790.73793	0.06642
2788.67835	0.06596
2786.61876	0.06532
2784.55918	0.06466
2782.49959	0.06420
2780.44001	0.06389
2778.38042	0.06365
2776.32084	0.06357
2774.26125	0.06340
2772.20167	0.06294
2770.14208	0.06252
2768.08250	0.06223
2766.02291	0.06189
2763.96333	0.06141
2761.90374	0.06086
2759.84416	0.06044
2757.78457	0.06029
2755.72499	0.06004
2753.66540	0.05946
2751.60582	0.05907
2749.54623	0.05907
2747.48665	0.05900
2745.42706	0.05860
2743.36747	0.05810
2741.30789	0.05771
2739.24830	0.05735
2737.18872	0.05692
2735.12913	0.05648
2733.06955	0.05617
2731.00996	0.05606
2728.95038	0.05601
2726.89079	0.05581
2724.83121	0.05547
2722.77162	0.05512
2720.71204	0.05476
2718.65245	0.05442
2716.59287	0.05398
2714.53328	0.05346
2712.47370	0.05315
2710.41411	0.05302
2708.35453	0.05281
2706.29494	0.05258
2704.23536	0.05249
2702.17577	0.05231
2700.11619	0.05177
2698.05660	0.05127
2695.99702	0.05112
2693.93743	0.05103
2691.87785	0.05090
2689.81826	0.05079
2687.75867	0.05064
2685.69909	0.05042
2683.63950	0.05022
2681.57992	0.05011
2679.52033	0.05011
2677.46075	0.05000
2675.40116	0.04979
2673.34158	0.04971
2671.28199	0.04955
2669.22241	0.04922
2667.16282	0.04902
2665.10324	0.04896
2663.04365	0.04880
2660.98407	0.04857
2658.92448	0.04844
2656.86490	0.04836
2654.80531	0.04821
2652.74573	0.04811
2650.68614	0.04815
2648.62656	0.04795
2646.56697	0.04743
2644.50739	0.04705
2642.44780	0.04716
2640.38822	0.04733
2638.32863	0.04705
2636.26904	0.04662
2634.20946	0.04637
2632.14987	0.04628
2630.09029	0.04621
2628.03070	0.04587
2625.97112	0.04550
2623.91153	0.04550
2621.85195	0.04545
2619.79236	0.04503
2617.73278	0.04456
2615.67319	0.04441
2613.61361	0.04450
2611.55402	0.04431
2609.49444	0.04384
2607.43485	0.04346
2605.37527	0.04318
2603.31568	0.04290
2601.25610	0.04268
2599.19651	0.04241
2597.13693	0.04238
2595.07734	0.04248
2593.01776	0.04219
2590.95817	0.04172
2588.89859	0.04154
2586.83900	0.04143
2584.77942	0.04098
2582.71983	0.04060
2580.66024	0.04075
2578.60066	0.04063
2576.54107	0.03980
2574.48149	0.03941
2572.42190	0.03968
2570.36232	0.03970
2568.30273	0.03954
2566.24315	0.03949
2564.18356	0.03939
2562.12398	0.03916
2560.06439	0.03882
2558.00481	0.03841
2555.94522	0.03827
2553.88564	0.03834
2551.82605	0.03805
2549.76647	0.03750
2547.70688	0.03719
2545.64730	0.03729
2543.58771	0.03775
2541.52813	0.03799
2539.46854	0.03766
2537.40896	0.03712
2535.34937	0.03664
2533.28979	0.03635
2531.23020	0.03630
2529.17062	0.03645
2527.11103	0.03661
2525.05144	0.03658
2522.99186	0.03632
2520.93227	0.03602
2518.87269	0.03581
2516.81310	0.03586
2514.75352	0.03622
2512.69393	0.03650
2510.63435	0.03636
2508.57476	0.03601
2506.51518	0.03588
2504.45559	0.03592
2502.39601	0.03582
2500.33642	0.03569
2498.27684	0.03580
2496.21725	0.03582
2494.15767	0.03553
2492.09808	0.03512
2490.03850	0.03447
2487.97891	0.03391
2485.91933	0.03395
2483.85974	0.03431
2481.80016	0.03452
2479.74057	0.03455
2477.68099	0.03443
2475.62140	0.03420
2473.56181	0.03394
2471.50223	0.03384
2469.44264	0.03397
2467.38306	0.03392
2465.32347	0.03373
2463.26389	0.03371
2461.20430	0.03396
2459.14472	0.03433
2457.08513	0.03411
2455.02555	0.03325
2452.96596	0.03271
2450.90638	0.03262
2448.84679	0.03262
2446.78721	0.03277
2444.72762	0.03287
2442.66804	0.03275
2440.60845	0.03255
2438.54887	0.03246
2436.48928	0.03253
2434.42970	0.03252
2432.37011	0.03217
2430.31053	0.03191
2428.25094	0.03204
2426.19136	0.03196
2424.13177	0.03163
2422.07219	0.03148
2420.01260	0.03145
2417.95301	0.03134
2415.89343	0.03112
2413.83384	0.03089
2411.77426	0.03083
2409.71467	0.03094
2407.65509	0.03098
2405.59550	0.03091
2403.53592	0.03088
2401.47633	0.03096
2399.41675	0.03094
2397.35716	0.03062
2395.29758	0.03036
2393.23799	0.03045
2391.17841	0.03062
2389.11882	0.03056
2387.05924	0.03052
2384.99965	0.03074
2382.94007	0.03084
2380.88048	0.03067
2378.82090	0.03065
2376.76131	0.03110
2374.70173	0.03154
2372.64214	0.03195
2370.58256	0.03216
2368.52297	0.03171
2366.46338	0.03177
2364.40380	0.03192
2362.34421	0.03198
2360.28463	0.03253
2358.22504	0.03257
2356.16546	0.03235
2354.10587	0.03176
2352.04629	0.03141
2349.98670	0.03242
2347.92712	0.03239
2345.86753	0.03157
2343.80795	0.03126
2341.74836	0.03090
2339.68878	0.03135
2337.62919	0.03105
2335.56961	0.03044
2333.51002	0.03118
2331.45044	0.03158
2329.39085	0.03210
2327.33127	0.03205
2325.27168	0.03252
2323.21210	0.03237
2321.15251	0.03162
2319.09293	0.03076
2317.03334	0.03044
2314.97376	0.03068
2312.91417	0.03053
2310.85458	0.02988
2308.79500	0.02928
2306.73541	0.02910
2304.67583	0.02944
2302.61624	0.02979
2300.55666	0.02973
2298.49707	0.02949
2296.43749	0.02936
2294.37790	0.02926
2292.31832	0.02950
2290.25873	0.02978
2288.19915	0.02962
2286.13956	0.02924
2284.07998	0.02903
2282.02039	0.02871
2279.96081	0.02810
2277.90122	0.02783
2275.84164	0.02818
2273.78205	0.02819
2271.72247	0.02753
2269.66288	0.02686
2267.60330	0.02649
2265.54371	0.02658
2263.48413	0.02702
2261.42454	0.02740
2259.36495	0.02759
2257.30537	0.02738
2255.24578	0.02657
2253.18620	0.02580
2251.12661	0.02573
2249.06703	0.02584
2247.00744	0.02547
2244.94786	0.02527
2242.88827	0.02533
2240.82869	0.02486
2238.76910	0.02420
2236.70952	0.02457
2234.64993	0.02538
2232.59035	0.02565
2230.53076	0.02523
2228.47118	0.02441
2226.41159	0.02395
2224.35201	0.02370
2222.29242	0.02338
2220.23284	0.02324
2218.17325	0.02335
2216.11367	0.02343
2214.05408	0.02304
2211.99450	0.02272
2209.93491	0.02299
2207.87533	0.02326
2205.81574	0.02322
2203.75615	0.02318
2201.69657	0.02361
2199.63698	0.02416
2197.57740	0.02386
2195.51781	0.02311
2193.45823	0.02268
2191.39864	0.02226
2189.33906	0.02161
2187.27947	0.02110
2185.21989	0.02101
2183.16030	0.02085
2181.10072	0.02106
2179.04113	0.02214
2176.98155	0.02245
2174.92196	0.02175
2172.86238	0.02185
2170.80279	0.02220
2168.74321	0.02152
2166.68362	0.02053
2164.62404	0.02040
2162.56445	0.02077
2160.50487	0.01940
2158.44528	0.01748
2156.38570	0.01830
2154.32611	0.02002
2152.26652	0.02021
2150.20694	0.01928
2148.14735	0.01854
2146.08777	0.01875
2144.02818	0.01937
2141.96860	0.01985
2139.90901	0.02027
2137.84943	0.02073
2135.78984	0.02086
2133.73026	0.02046
2131.67067	0.02034
2129.61109	0.02060
2127.55150	0.02059
2125.49192	0.02084
2123.43233	0.02163
2121.37275	0.02251
2119.31316	0.02323
2117.25358	0.02363
2115.19399	0.02369
2113.13441	0.02362
2111.07482	0.02364
2109.01524	0.02366
2106.95565	0.02337
2104.89607	0.02270
2102.83648	0.02175
2100.77690	0.02083
2098.71731	0.02089
2096.65772	0.02173
2094.59814	0.02218
2092.53855	0.02232
2090.47897	0.02281
2088.41938	0.02331
2086.35980	0.02332
2084.30021	0.02296
2082.24063	0.02257
2080.18104	0.02263
2078.12146	0.02309
2076.06187	0.02332
2074.00229	0.02319
2071.94270	0.02292
2069.88312	0.02234
2067.82353	0.02185
2065.76395	0.02193
2063.70436	0.02203
2061.64478	0.02167
2059.58519	0.02129
2057.52561	0.02134
2055.46602	0.02135
2053.40644	0.02124
2051.34685	0.02139
2049.28727	0.02106
2047.22768	0.01991
2045.16810	0.01865
2043.10851	0.01793
2041.04892	0.01768
2038.98934	0.01693
2036.92975	0.01586
2034.87017	0.01579
2032.81058	0.01653
2030.75100	0.01648
2028.69141	0.01521
2026.63183	0.01340
2024.57224	0.01210
2022.51266	0.01249
2020.45307	0.01400
2018.39349	0.01547
2016.33390	0.01698
2014.27432	0.01835
2012.21473	0.01868
2010.15515	0.01807
2008.09556	0.01736
2006.03598	0.01698
2003.97639	0.01679
2001.91681	0.01698
1999.85722	0.01804
1997.79764	0.01900
1995.73805	0.01899
1993.67847	0.01867
1991.61888	0.01842
1989.55929	0.01802
1987.49971	0.01752
1985.44012	0.01722
1983.38054	0.01750
1981.32095	0.01775
1979.26137	0.01683
1977.20178	0.01485
1975.14220	0.01338
1973.08261	0.01371
1971.02303	0.01522
1968.96344	0.01638
1966.90386	0.01662
1964.84427	0.01640
1962.78469	0.01623
1960.72510	0.01608
1958.66552	0.01589
1956.60593	0.01578
1954.54635	0.01615
1952.48676	0.01718
1950.42718	0.01771
1948.36759	0.01710
1946.30801	0.01652
1944.24842	0.01666
1942.18884	0.01684
1940.12925	0.01663
1938.06967	0.01654
1936.01008	0.01673
1933.95049	0.01664
1931.89091	0.01645
1929.83132	0.01662
1927.77174	0.01692
1925.71215	0.01684
1923.65257	0.01646
1921.59298	0.01638
1919.53340	0.01692
1917.47381	0.01754
1915.41423	0.01769
1913.35464	0.01766
1911.29506	0.01750
1909.23547	0.01697
1907.17589	0.01647
1905.11630	0.01633
1903.05672	0.01641
1900.99713	0.01667
1898.93755	0.01707
1896.87796	0.01726
1894.81838	0.01718
1892.75879	0.01723
1890.69921	0.01732
1888.63962	0.01708
1886.58004	0.01695
1884.52045	0.01737
1882.46086	0.01777
1880.40128	0.01772
1878.34169	0.01741
1876.28211	0.01707
1874.22252	0.01683
1872.16294	0.01673
1870.10335	0.01651
1868.04377	0.01620
1865.98418	0.01620
1863.92460	0.01639
1861.86501	0.01650
1859.80543	0.01656
1857.74584	0.01658
1855.68626	0.01656
1853.62667	0.01649
1851.56709	0.01627
1849.50750	0.01601
1847.44792	0.01596
1845.38833	0.01616
1843.32875	0.01643
1841.26916	0.01661
1839.20958	0.01671
1837.14999	0.01665
1835.09041	0.01646
1833.03082	0.01631
1830.97124	0.01629
1828.91165	0.01635
1826.85206	0.01648
1824.79248	0.01663
1822.73289	0.01666
1820.67331	0.01655
1818.61372	0.01642
1816.55414	0.01640
1814.49455	0.01647
1812.43497	0.01641
1810.37538	0.01622
1808.31580	0.01622
1806.25621	0.01648
1804.19663	0.01667
1802.13704	0.01653
1800.07746	0.01623
1798.01787	0.01605
1795.95829	0.01612
1793.89870	0.01638
1791.83912	0.01658
1789.77953	0.01650
1787.71995	0.01627
1785.66036	0.01624
1783.60078	0.01643
1781.54119	0.01656
1779.48161	0.01664
1777.42202	0.01681
1775.36243	0.01699
1773.30285	0.01715
1771.24326	0.01725
1769.18368	0.01729
1767.12409	0.01742
1765.06451	0.01760
1763.00492	0.01771
1760.94534	0.01773
1758.88575	0.01775
1756.82617	0.01782
1754.76658	0.01796
1752.70700	0.01817
1750.64741	0.01846
1748.58783	0.01876
1746.52824	0.01909
1744.46866	0.01956
1742.40907	0.02016
1740.34949	0.02060
1738.28990	0.02072
1736.23032	0.02074
1734.17073	0.02101
1732.11115	0.02148
1730.05156	0.02184
1727.99198	0.02211
1725.93239	0.02248
1723.87281	0.02304
1721.81322	0.02367
1719.75363	0.02443
1717.69405	0.02553
1715.63446	0.02699
1713.57488	0.02862
1711.51529	0.03049
1709.45571	0.03296
1707.39612	0.03645
1705.33654	0.04113
1703.27695	0.04677
1701.21737	0.05456
1699.15778	0.06459
1697.09820	0.07340
1695.03861	0.08032
1692.97903	0.08598
1690.91944	0.09148
1688.85986	0.09773
1686.80027	0.10472
1684.74069	0.11406
1682.68110	0.12491
1680.62152	0.13316
1678.56193	0.13971
1676.50235	0.14720
1674.44276	0.15615
1672.38318	0.16506
1670.32359	0.17481
1668.26401	0.18585
1666.20442	0.19561
1664.14483	0.20544
1662.08525	0.21754
1660.02566	0.22926
1657.96608	0.23804
1655.90649	0.24521
1653.84691	0.25400
1651.78732	0.26308
1649.72774	0.26721
1647.66815	0.26857
1645.60857	0.26961
1643.54898	0.26962
1641.48940	0.26869
1639.42981	0.26746
1637.37023	0.26621
1635.31064	0.26501
1633.25106	0.26380
1631.19147	0.26253
1629.13189	0.26142
1627.07230	0.26069
1625.01272	0.26019
1622.95313	0.25941
1620.89355	0.25769
1618.83396	0.25422
1616.77438	0.24788
1614.71479	0.23918
1612.65520	0.22949
1610.59562	0.21841
1608.53603	0.20595
1606.47645	0.19343
1604.41686	0.18180
1602.35728	0.17118
1600.29769	0.16171
1598.23811	0.15351
1596.17852	0.14631
1594.11894	0.13986
1592.05935	0.13419
1589.99977	0.12939
1587.94018	0.12561
1585.88060	0.12284
1583.82101	0.12102
1581.76143	0.12000
1579.70184	0.11963
1577.64226	0.12007
1575.58267	0.12129
1573.52309	0.12262
1571.46350	0.12422
1569.40392	0.12709
1567.34433	0.13104
1565.28475	0.13535
1563.22516	0.13952
1561.16558	0.14457
1559.10599	0.15404
1557.04640	0.16617
1554.98682	0.17549
1552.92723	0.18361
1550.86765	0.19202
1548.80806	0.20011
1546.74848	0.20678
1544.68889	0.21237
1542.62931	0.21764
1540.56972	0.22265
1538.51014	0.22627
1536.45055	0.22753
1534.39097	0.22781
1532.33138	0.22811
1530.27180	0.22811
1528.21221	0.22774
1526.15263	0.22714
1524.09304	0.22638
1522.03346	0.22586
1519.97387	0.22579
1517.91429	0.22524
1515.85470	0.22315
1513.79512	0.21934
1511.73553	0.21428
1509.67595	0.20792
1507.61636	0.19858
1505.55677	0.18705
1503.49719	0.17808
1501.43760	0.17098
1499.37802	0.16315
1497.31843	0.15397
1495.25885	0.14503
1493.19926	0.13776
1491.13968	0.13080
1489.08009	0.12305
1487.02051	0.11615
1484.96092	0.11128
1482.90134	0.10802
1480.84175	0.10588
1478.78217	0.10485
1476.72258	0.10516
1474.66300	0.10700
1472.60341	0.10995
1470.54383	0.11247
1468.48424	0.11382
1466.42466	0.11472
1464.36507	0.11572
1462.30549	0.11654
1460.24590	0.11732
1458.18632	0.11896
1456.12673	0.12124
1454.06715	0.12237
1452.00756	0.12211
1449.94797	0.12117
1447.88839	0.11984
1445.82880	0.11821
1443.76922	0.11638
1441.70963	0.11444
1439.65005	0.11248
1437.59046	0.11035
1435.53088	0.10813
1433.47129	0.10617
1431.41171	0.10449
1429.35212	0.10324
1427.29254	0.10281
1425.23295	0.10323
1423.17337	0.10423
1421.11378	0.10570
1419.05420	0.10784
1416.99461	0.11011
1414.93503	0.11171
1412.87544	0.11266
1410.81586	0.11314
1408.75627	0.11317
1406.69669	0.11287
1404.63710	0.11238
1402.57752	0.11186
1400.51793	0.11139
1398.45834	0.11096
1396.39876	0.11059
1394.33917	0.11034
1392.27959	0.11007
1390.22000	0.10974
1388.16042	0.10946
1386.10083	0.10909
1384.04125	0.10825
1381.98166	0.10690
1379.92208	0.10522
1377.86249	0.10345
1375.80291	0.10181
1373.74332	0.10041
1371.68374	0.09928
1369.62415	0.09821
1367.56457	0.09680
1365.50498	0.09488
1363.44540	0.09271
1361.38581	0.09076
1359.32623	0.08942
1357.26664	0.08864
1355.20706	0.08822
1353.14747	0.08808
1351.08789	0.08818
1349.02830	0.08849
1346.96872	0.08903
1344.90913	0.08974
1342.84954	0.09058
1340.78996	0.09153
1338.73037	0.09247
1336.67079	0.09316
1334.61120	0.09361
1332.55162	0.09389
1330.49203	0.09393
1328.43245	0.09380
1326.37286	0.09368
1324.31328	0.09368
1322.25369	0.09374
1320.19411	0.09380
1318.13452	0.09391
1316.07494	0.09403
1314.01535	0.09407
1311.95577	0.09404
1309.89618	0.09400
1307.83660	0.09392
1305.77701	0.09378
1303.71743	0.09359
1301.65784	0.09327
1299.59826	0.09278
1297.53867	0.09228
1295.47909	0.09181
1293.41950	0.09140
1291.35991	0.09100
1289.30033	0.09062
1287.24074	0.09038
1285.18116	0.09021
1283.12157	0.09001
1281.06199	0.08980
1279.00240	0.08970
1276.94282	0.08966
1274.88323	0.08958
1272.82365	0.08956
1270.76406	0.08984
1268.70448	0.09039
1266.64489	0.09097
1264.58531	0.09150
1262.52572	0.09211
1260.46614	0.09294
1258.40655	0.09385
1256.34697	0.09470
1254.28738	0.09551
1252.22780	0.09638
1250.16821	0.09721
1248.10863	0.09793
1246.04904	0.09857
1243.98946	0.09918
1241.92987	0.09971
1239.87029	0.10002
1237.81070	0.09995
1235.75111	0.09945
1233.69153	0.09863
1231.63194	0.09759
1229.57236	0.09636
1227.51277	0.09498
1225.45319	0.09347
1223.39360	0.09183
1221.33402	0.09008
1219.27443	0.08836
1217.21485	0.08666
1215.15526	0.08490
1213.09568	0.08318
1211.03609	0.08161
1208.97651	0.08020
1206.91692	0.07884
1204.85734	0.07741
1202.79775	0.07590
1200.73817	0.07438
1198.67858	0.07311
1196.61900	0.07220
1194.55941	0.07143
1192.49983	0.07064
1190.44024	0.06989
1188.38066	0.06914
1186.32107	0.06843
1184.26149	0.06802
1182.20190	0.06801
1180.14231	0.06829
1178.08273	0.06897
1176.02314	0.07019
1173.96356	0.07166
1171.90397	0.07299
1169.84439	0.07399
1167.78480	0.07470
1165.72522	0.07523
1163.66563	0.07566
1161.60605	0.07589
1159.54646	0.07585
1157.48688	0.07559
1155.42729	0.07508
1153.36771	0.07434
1151.30812	0.07353
1149.24854	0.07279
1147.18895	0.07218
1145.12937	0.07166
1143.06978	0.07127
1141.01020	0.07110
1138.95061	0.07120
1136.89103	0.07162
1134.83144	0.07225
1132.77186	0.07297
1130.71227	0.07380
1128.65268	0.07457
1126.59310	0.07510
1124.53351	0.07536
1122.47393	0.07535
1120.41434	0.07515
1118.35476	0.07495
1116.29517	0.07489
1114.23559	0.07501
1112.17600	0.07524
1110.11642	0.07550
1108.05683	0.07583
1105.99725	0.07624
1103.93766	0.07661
1101.87808	0.07673
1099.81849	0.07677
1097.75891	0.07695
1095.69932	0.07716
1093.63974	0.07753
1091.58015	0.07830
1089.52057	0.07936
1087.46098	0.08050
1085.40140	0.08181
1083.34181	0.08333
1081.28223	0.08486
1079.22264	0.08616
1077.16306	0.08705
1075.10347	0.08744
1073.04388	0.08741
1070.98430	0.08714
1068.92471	0.08673
1066.86513	0.08617
1064.80554	0.08547
1062.74596	0.08482
1060.68637	0.08425
1058.62679	0.08367
1056.56720	0.08303
1054.50762	0.08235
1052.44803	0.08172
1050.38845	0.08130
1048.32886	0.08093
1046.26928	0.08024
1044.20969	0.07914
1042.15011	0.07781
1040.09052	0.07641
1038.03094	0.07485
1035.97135	0.07315
1033.91177	0.07156
1031.85218	0.07017
1029.79260	0.06868
1027.73301	0.06694
1025.67343	0.06513
1023.61384	0.06329
1021.55425	0.06143
1019.49467	0.05977
1017.43508	0.05833
1015.37550	0.05700
1013.31591	0.05575
1011.25633	0.05455
1009.19674	0.05325
1007.13716	0.05192
1005.07757	0.05079
1003.01799	0.04980
1000.95840	0.04889
998.89882	0.04810
996.83923	0.04740
994.77965	0.04677
992.72006	0.04624
990.66048	0.04567
988.60089	0.04501
986.54131	0.04446
984.48172	0.04406
982.42214	0.04368
980.36255	0.04328
978.30297	0.04286
976.24338	0.04247
974.18380	0.04200
972.12421	0.04150
970.06463	0.04113
968.00504	0.04079
965.94545	0.04034
963.88587	0.03995
961.82628	0.03975
959.76670	0.03956
957.70711	0.03926
955.64753	0.03899
953.58794	0.03868
951.52836	0.03838
949.46877	0.03828
947.40919	0.03840
945.34960	0.03854
943.29002	0.03863
941.23043	0.03881
939.17085	0.03903
937.11126	0.03923
935.05168	0.03944
932.99209	0.03950
930.93251	0.03940
928.87292	0.03929
926.81334	0.03914
924.75375	0.03897
922.69417	0.03879
920.63458	0.03844
918.57500	0.03794
916.51541	0.03746
914.45582	0.03711
912.39624	0.03687
910.33665	0.03670
908.27707	0.03664
906.21748	0.03667
904.15790	0.03673
902.09831	0.03686
900.03873	0.03699
897.97914	0.03701
895.91956	0.03683
893.85997	0.03655
891.80039	0.03629
889.74080	0.03594
887.68122	0.03549
885.62163	0.03514
883.56205	0.03497
881.50246	0.03490
879.44288	0.03484
877.38329	0.03482
875.32371	0.03483
873.26412	0.03481
871.20454	0.03466
869.14495	0.03441
867.08537	0.03419
865.02578	0.03413
862.96620	0.03423
860.90661	0.03429
858.84702	0.03432
856.78744	0.03441
854.72785	0.03460
852.66827	0.03482
850.60868	0.03492
848.54910	0.03490
846.48951	0.03487
844.42993	0.03490
842.37034	0.03494
840.31076	0.03501
838.25117	0.03528
836.19159	0.03577
834.13200	0.03628
832.07242	0.03665
830.01283	0.03708
827.95325	0.03750
825.89366	0.03774
823.83408	0.03782
821.77449	0.03783
819.71491	0.03783
817.65532	0.03795
815.59574	0.03828
813.53615	0.03877
811.47657	0.03923
809.41698	0.03965
807.35740	0.04005
805.29781	0.04040
803.23822	0.04080
801.17864	0.04123
799.11905	0.04154
797.05947	0.04185
794.99988	0.04228
792.94030	0.04274
790.88071	0.04307
788.82113	0.04337
786.76154	0.04393
784.70196	0.04473
782.64237	0.04554
780.58279	0.04624
778.52320	0.04684
776.46362	0.04733
774.40403	0.04765
772.34445	0.04797
770.28486	0.04849
768.22528	0.04908
766.16569	0.04960
764.10611	0.05002
762.04652	0.05035
759.98694	0.05076
757.92735	0.05131
755.86777	0.05189
753.80818	0.05246
751.74859	0.05305
749.68901	0.05366
747.62942	0.05418
745.56984	0.05460
743.51025	0.05495
741.45067	0.05510
739.39108	0.05511
737.33150	0.05536
735.27191	0.05581
733.21233	0.05620
731.15274	0.05670
729.09316	0.05741
727.03357	0.05819
724.97399	0.05904
722.91440	0.06002
720.85482	0.06104
718.79523	0.06205
716.73565	0.06283
714.67606	0.06362
712.61648	0.06461
710.55689	0.06583
708.49731	0.06723
706.43772	0.06871
704.37814	0.07026
702.31855	0.07171
700.25897	0.07272
698.19938	0.07314
696.13979	0.07308
694.08021	0.07291
692.02062	0.07285
689.96104	0.07286
687.90145	0.07296
685.84187	0.07314
683.78228	0.07343
681.72270	0.07384
679.66311	0.07430
677.60353	0.07477
675.54394	0.07526
673.48436	0.07570
671.42477	0.07649
669.36519	0.07754
667.30560	0.07654
665.24602	0.07728
663.18643	0.07699
661.12685	0.07689
659.06726	0.07719
657.00768	0.07765
654.94809	0.07807
652.88851	0.07834
650.82892	0.07854
648.76934	0.07863
646.70975	0.07866
644.65016	0.07877
642.59058	0.07904
640.53099	0.07934
638.47141	0.07960
636.41182	0.08002
634.35224	0.08058
632.29265	0.08099
630.23307	0.08128
628.17348	0.08165
626.11390	0.08211
624.05431	0.08256
621.99473	0.08291
619.93514	0.08315
617.87556	0.08341
615.81597	0.08363
613.75639	0.08361
611.69680	0.08335
609.63722	0.08299
607.57763	0.08276
605.51805	0.08269
603.45846	0.08256
601.39888	0.08248
599.33929	0.08261
597.27971	0.08270
595.22012	0.08258
593.16054	0.08241
591.10095	0.08241
589.04136	0.08254
586.98178	0.08254
584.92219	0.08242
582.86261	0.08234
580.80302	0.08230
578.74344	0.08231
576.68385	0.08248
574.62427	0.08269
572.56468	0.08280
570.50510	0.08284
568.44551	0.08289
566.38593	0.08301
564.32634	0.08305
562.26676	0.08285
560.20717	0.08272
558.14759	0.08287
556.08800	0.08314
554.02842	0.08343
551.96883	0.08351
549.90925	0.08318
547.84966	0.08276
545.79008	0.08267
543.73049	0.08282
541.67091	0.08291
539.61132	0.08278
537.55173	0.08246
535.49215	0.08214
533.43256	0.08202
531.37298	0.08215
529.31339	0.08237
527.25381	0.08249
525.19422	0.08253
523.13464	0.08250
521.07505	0.08235
519.01547	0.08204
516.95588	0.08165
514.89630	0.08126
512.83671	0.08088
510.77713	0.08050
508.71754	0.08005
506.65796	0.07944
504.59837	0.07874
502.53879	0.07821
500.47920	0.07794
498.41962	0.07767
496.36003	0.07728
494.30045	0.07681
492.24086	0.07635
490.18128	0.07592
488.12169	0.07559
486.06211	0.07534
484.00252	0.07492
481.94293	0.07451
479.88335	0.07439
477.82376	0.07432
475.76418	0.07409
473.70459	0.07376
471.64501	0.07343
469.58542	0.07309
467.52584	0.07279
465.46625	0.07270
463.40667	0.07270
461.34708	0.07255
459.28750	0.07225
457.22791	0.07179
455.16833	0.07115
453.10874	0.07062
451.04916	0.07019
448.98957	0.06955
446.92999	0.06871
444.87040	0.06803
442.81082	0.06769
440.75123	0.06744
438.69165	0.06696
436.63206	0.06626
434.57248	0.06549
432.51289	0.06484
430.45330	0.06447
428.39372	0.06415
426.33413	0.06356
424.27455	0.06296
422.21496	0.06274
420.15538	0.06306
418.09579	0.06363
416.03621	0.06361
413.97662	0.06280
411.91704	0.06164
409.85745	0.06079
407.79787	0.06030
405.73828	0.05983
403.67870	0.05925
401.61911	0.05877
399.55953	0.05845
