3997.66060,0.00975
3995.60101,0.00992
3993.54142,0.01011
3991.48183,0.01010
3989.42224,0.00988
3987.36265,0.00970
3985.30307,0.00965
3983.24348,0.00964
3981.18389,0.00955
3979.12430,0.00948
3977.06471,0.00961
3975.00513,0.00978
3972.94554,0.00979
3970.88595,0.00964
3968.82636,0.00950
3966.76677,0.00951
3964.70719,0.00959
3962.64760,0.00958
3960.58801,0.00953
3958.52842,0.00951
3956.46883,0.00949
3954.40924,0.00946
3952.34966,0.00941
3950.29007,0.00943
3948.23048,0.00958
3946.17089,0.00971
3944.11130,0.00986
3942.05172,0.00994
3939.99213,0.00981
3937.93254,0.00966
3935.87295,0.00961
3933.81336,0.00962
3931.75377,0.00971
3929.69419,0.00976
3927.63460,0.00965
3925.57501,0.00946
3923.51542,0.00933
3921.45583,0.00928
3919.39625,0.00927
3917.33666,0.00930
3915.27707,0.00936
3913.21748,0.00941
3911.15789,0.00943
3909.09831,0.00947
3907.03872,0.00960
3904.97913,0.00960
3902.91954,0.00948
3900.85995,0.00957
3898.80036,0.00976
3896.74078,0.00979
3894.68119,0.00965
3892.62160,0.00940
3890.56201,0.00929
3888.50242,0.00940
3886.44284,0.00946
3884.38325,0.00939
3882.32366,0.00937
3880.26407,0.00944
3878.20448,0.00957
3876.14489,0.00972
3874.08531,0.00977
3872.02572,0.00966
3869.96613,0.00948
3867.90654,0.00944
3865.84695,0.00959
3863.78737,0.00970
3861.72778,0.00967
3859.66819,0.00976
3857.60860,0.00994
3855.54901,0.00996
3853.48943,0.00988
3851.42984,0.00989
3849.37025,0.00990
3847.31066,0.00987
3845.25107,0.00979
3843.19148,0.00976
3841.13190,0.00981
3839.07231,0.00978
3837.01272,0.00968
3834.95313,0.00955
3832.89354,0.00939
3830.83396,0.00937
3828.77437,0.00948
3826.71478,0.00955
3824.65519,0.00952
3822.59560,0.00948
3820.53601,0.00952
3818.47643,0.00962
3816.41684,0.00976
3814.35725,0.00988
3812.29766,0.00985
3810.23807,0.00977
3808.17849,0.00976
3806.11890,0.00978
3804.05931,0.00975
3801.99972,0.00970
3799.94013,0.00974
3797.88055,0.00980
3795.82096,0.00985
3793.76137,0.00983
3791.70178,0.00965
3789.64219,0.00943
3787.58260,0.00941
3785.52302,0.00955
3783.46343,0.00950
3781.40384,0.00926
3779.34425,0.00923
3777.28466,0.00945
3775.22508,0.00970
3773.16549,0.00989
3771.10590,0.00981
3769.04631,0.00954
3766.98672,0.00956
3764.92713,0.00968
3762.86755,0.00959
3760.80796,0.00940
3758.74837,0.00929
3756.68878,0.00938
3754.62919,0.00950
3752.56961,0.00949
3750.51002,0.00933
3748.45043,0.00923
3746.39084,0.00933
3744.33125,0.00954
3742.27167,0.00970
3740.21208,0.00967
3738.15249,0.00964
3736.09290,0.00965
3734.03331,0.00961
3731.97372,0.00950
3729.91414,0.00930
3727.85455,0.00913
3725.79496,0.00909
3723.73537,0.00915
3721.67578,0.00934
3719.61620,0.00962
3717.55661,0.00972
3715.49702,0.00957
3713.43743,0.00935
3711.37784,0.00909
3709.31825,0.00895
3707.25867,0.00904
3705.19908,0.00913
3703.13949,0.00913
3701.07990,0.00922
3699.02031,0.00942
3696.96073,0.00959
3694.90114,0.00960
3692.84155,0.00951
3690.78196,0.00947
3688.72237,0.00946
3686.66279,0.00955
3684.60320,0.00962
3682.54361,0.00951
3680.48402,0.00944
3678.42443,0.00953
3676.36484,0.00951
3674.30526,0.00921
3672.24567,0.00911
3670.18608,0.00940
3668.12649,0.00973
3666.06690,0.00974
3664.00732,0.00958
3661.94773,0.00947
3659.88814,0.00943
3657.82855,0.00947
3655.76896,0.00949
3653.70937,0.00944
3651.64979,0.00953
3649.59020,0.00980
3647.53061,0.00991
3645.47102,0.00985
3643.41143,0.00994
3641.35185,0.01002
3639.29226,0.00992
3637.23267,0.00976
3635.17308,0.00966
3633.11349,0.00966
3631.05391,0.00965
3628.99432,0.00955
3626.93473,0.00947
3624.87514,0.00947
3622.81555,0.00953
3620.75596,0.00965
3618.69638,0.00961
3616.63679,0.00947
3614.57720,0.00948
3612.51761,0.00953
3610.45802,0.00946
3608.39844,0.00930
3606.33885,0.00925
3604.27926,0.00940
3602.21967,0.00961
3600.16008,0.00985
3598.10049,0.01009
3596.04091,0.01012
3593.98132,0.00998
3591.92173,0.00982
3589.86214,0.00956
3587.80255,0.00930
3585.74297,0.00935
3583.68338,0.00966
3581.62379,0.00982
3579.56420,0.00974
3577.50461,0.00971
3575.44503,0.00975
3573.38544,0.00972
3571.32585,0.00970
3569.26626,0.00972
3567.20667,0.00978
3565.14708,0.00981
3563.08750,0.00972
3561.02791,0.00962
3558.96832,0.00968
3556.90873,0.00983
3554.84914,0.00988
3552.78956,0.00981
3550.72997,0.00971
3548.67038,0.00972
3546.61079,0.00976
3544.55120,0.00972
3542.49161,0.00976
3540.43203,0.00987
3538.37244,0.00997
3536.31285,0.00993
3534.25326,0.00976
3532.19367,0.00976
3530.13409,0.00991
3528.07450,0.00997
3526.01491,0.00994
3523.95532,0.01003
3521.89573,0.01021
3519.83615,0.01018
3517.77656,0.00998
3515.71697,0.00992
3513.65738,0.01004
3511.59779,0.01016
3509.53820,0.01021
3507.47862,0.01019
3505.41903,0.01013
3503.35944,0.01018
3501.29985,0.01022
3499.24026,0.01016
3497.18068,0.01010
3495.12109,0.01010
3493.06150,0.01023
3491.00191,0.01040
3488.94232,0.01039
3486.88273,0.01023
3484.82315,0.01007
3482.76356,0.00999
3480.70397,0.00997
3478.64438,0.01000
3476.58479,0.01011
3474.52521,0.01015
3472.46562,0.01010
3470.40603,0.01017
3468.34644,0.01036
3466.28685,0.01048
3464.22727,0.01045
3462.16768,0.01040
3460.10809,0.01049
3458.04850,0.01054
3455.98891,0.01048
3453.92932,0.01040
3451.86974,0.01040
3449.81015,0.01042
3447.75056,0.01034
3445.69097,0.01027
3443.63138,0.01033
3441.57180,0.01034
3439.51221,0.01021
3437.45262,0.01019
3435.39303,0.01027
3433.33344,0.01021
3431.27385,0.01009
3429.21427,0.01004
3427.15468,0.01008
3425.09509,0.01018
3423.03550,0.01028
3420.97591,0.01035
3418.91633,0.01042
3416.85674,0.01045
3414.79715,0.01038
3412.73756,0.01025
3410.67797,0.01017
3408.61839,0.01016
3406.55880,0.01020
3404.49921,0.01031
3402.43962,0.01048
3400.38003,0.01065
3398.32044,0.01073
3396.26086,0.01067
3394.20127,0.01066
3392.14168,0.01080
3390.08209,0.01079
3388.02250,0.01060
3385.96292,0.01055
3383.90333,0.01062
3381.84374,0.01069
3379.78415,0.01077
3377.72456,0.01064
3375.66497,0.01031
3373.60539,0.01018
3371.54580,0.01018
3369.48621,0.01017
3367.42662,0.01028
3365.36703,0.01042
3363.30745,0.01053
3361.24786,0.01074
3359.18827,0.01086
3357.12868,0.01077
3355.06909,0.01069
3353.00951,0.01067
3350.94992,0.01058
3348.89033,0.01044
3346.83074,0.01041
3344.77115,0.01044
3342.71156,0.01050
3340.65198,0.01054
3338.59239,0.01047
3336.53280,0.01043
3334.47321,0.01047
3332.41362,0.01041
3330.35404,0.01033
3328.29445,0.01049
3326.23486,0.01072
3324.17527,0.01074
3322.11568,0.01051
3320.05609,0.01024
3317.99651,0.01005
3315.93692,0.01008
3313.87733,0.01030
3311.81774,0.01046
3309.75815,0.01043
3307.69857,0.01039
3305.63898,0.01045
3303.57939,0.01057
3301.51980,0.01049
3299.46021,0.01028
3297.40063,0.01020
3295.34104,0.01031
3293.28145,0.01048
3291.22186,0.01048
3289.16227,0.01028
3287.10268,0.01014
3285.04310,0.01011
3282.98351,0.01012
3280.92392,0.01022
3278.86433,0.01040
3276.80474,0.01055
3274.74516,0.01059
3272.68557,0.01053
3270.62598,0.01041
3268.56639,0.01032
3266.50680,0.01031
3264.44721,0.01042
3262.38763,0.01058
3260.32804,0.01056
3258.26845,0.01047
3256.20886,0.01048
3254.14927,0.01042
3252.08969,0.01023
3250.03010,0.01015
3247.97051,0.01022
3245.91092,0.01035
3243.85133,0.01051
3241.79175,0.01051
3239.73216,0.01035
3237.67257,0.01029
3235.61298,0.01040
3233.55339,0.01053
3231.49380,0.01056
3229.43422,0.01047
3227.37463,0.01037
3225.31504,0.01027
3223.25545,0.01018
3221.19586,0.01016
3219.13628,0.01021
3217.07669,0.01027
3215.01710,0.01020
3212.95751,0.01011
3210.89792,0.01016
3208.83833,0.01023
3206.77875,0.01020
3204.71916,0.01027
3202.65957,0.01057
3200.59998,0.01081
3198.54039,0.01074
3196.48081,0.01052
3194.42122,0.01036
3192.36163,0.01027
3190.30204,0.01017
3188.24245,0.01012
3186.18287,0.01020
3184.12328,0.01037
3182.06369,0.01051
3180.00410,0.01051
3177.94451,0.01044
3175.88492,0.01044
3173.82534,0.01050
3171.76575,0.01049
3169.70616,0.01049
3167.64657,0.01052
3165.58698,0.01054
3163.52740,0.01052
3161.46781,0.01045
3159.40822,0.01043
3157.34863,0.01046
3155.28904,0.01046
3153.22945,0.01045
3151.16987,0.01051
3149.11028,0.01050
3147.05069,0.01033
3144.99110,0.01010
3142.93151,0.01001
3140.87193,0.01014
3138.81234,0.01026
3136.75275,0.01025
3134.69316,0.01023
3132.63357,0.01025
3130.57399,0.01018
3128.51440,0.01001
3126.45481,0.00995
3124.39522,0.01015
3122.33563,0.01027
3120.27604,0.01025
3118.21646,0.01038
3116.15687,0.01059
3114.09728,0.01075
3112.03769,0.01105
3109.97810,0.01148
3107.91852,0.01201
3105.85893,0.01265
3103.79934,0.01316
3101.73975,0.01332
3099.68016,0.01319
3097.62057,0.01295
3095.56099,0.01276
3093.50140,0.01287
3091.44181,0.01356
3089.38222,0.01488
3087.32263,0.01669
3085.26305,0.01864
3083.20346,0.02002
3081.14387,0.02026
3079.08428,0.01951
3077.02469,0.01840
3074.96511,0.01749
3072.90552,0.01712
3070.84593,0.01741
3068.78634,0.01832
3066.72675,0.01976
3064.66716,0.02163
3062.60758,0.02367
3060.54799,0.02517
3058.48840,0.02533
3056.42881,0.02409
3054.36922,0.02226
3052.30964,0.02055
3050.25005,0.01912
3048.19046,0.01796
3046.13087,0.01720
3044.07128,0.01697
3042.01169,0.01725
3039.95211,0.01802
3037.89252,0.01941
3035.83293,0.02159
3033.77334,0.02474
3031.71375,0.02893
3029.65417,0.03378
3027.59458,0.03830
3025.53499,0.04106
3023.47540,0.04067
3021.41581,0.03707
3019.35623,0.03185
3017.29664,0.02677
3015.23705,0.02282
3013.17746,0.02026
3011.11787,0.01882
3009.05828,0.01804
3006.99870,0.01776
3004.93911,0.01792
3002.87952,0.01825
3000.81993,0.01844
2998.76034,0.01800
2996.70076,0.01679
2994.64117,0.01541
2992.58158,0.01444
2990.52199,0.01383
2988.46240,0.01340
2986.40281,0.01314
2984.34323,0.01299
2982.28364,0.01289
2980.22405,0.01296
2978.16446,0.01314
2976.10487,0.01325
2974.04529,0.01333
2971.98570,0.01349
2969.92611,0.01371
2967.86652,0.01394
2965.80693,0.01421
2963.74735,0.01461
2961.68776,0.01499
2959.62817,0.01532
2957.56858,0.01576
2955.50899,0.01645
2953.44940,0.01737
2951.38982,0.01847
2949.33023,0.01971
2947.27064,0.02103
2945.21105,0.02254
2943.15146,0.02437
2941.09188,0.02644
2939.03229,0.02869
2936.97270,0.03121
2934.91311,0.03406
2932.85352,0.03714
2930.79393,0.04032
2928.73435,0.04342
2926.67476,0.04605
2924.61517,0.04796
2922.55558,0.04914
2920.49599,0.04950
2918.43641,0.04910
2916.37682,0.04815
2914.31723,0.04678
2912.25764,0.04510
2910.19805,0.04315
2908.13847,0.04107
2906.07888,0.03900
2904.01929,0.03694
2901.95970,0.03483
2899.90011,0.03279
2897.84052,0.03100
2895.78094,0.02946
2893.72135,0.02804
2891.66176,0.02679
2889.60217,0.02580
2887.54258,0.02500
2885.48300,0.02419
2883.42341,0.02343
2881.36382,0.02285
2879.30423,0.02239
2877.24464,0.02186
2875.18505,0.02119
2873.12547,0.02063
2871.06588,0.02036
2869.00629,0.02036
2866.94670,0.02056
2864.88711,0.02091
2862.82753,0.02146
2860.76794,0.02233
2858.70835,0.02354
2856.64876,0.02494
2854.58917,0.02635
2852.52959,0.02756
2850.47000,0.02836
2848.41041,0.02858
2846.35082,0.02818
2844.29123,0.02708
2842.23164,0.02525
2840.17206,0.02304
2838.11247,0.02097
2836.05288,0.01922
2833.99329,0.01788
2831.93370,0.01695
2829.87412,0.01628
2827.81453,0.01574
2825.75494,0.01532
2823.69535,0.01503
2821.63576,0.01488
2819.57617,0.01485
2817.51659,0.01485
2815.45700,0.01480
2813.39741,0.01466
2811.33782,0.01443
2809.27823,0.01421
2807.21865,0.01414
2805.15906,0.01417
2803.09947,0.01409
2801.03988,0.01395
2798.98029,0.01386
2796.92071,0.01380
2794.86112,0.01374
2792.80153,0.01368
2790.74194,0.01361
2788.68235,0.01354
2786.62276,0.01345
2784.56318,0.01332
2782.50359,0.01329
2780.44400,0.01338
2778.38441,0.01341
2776.32482,0.01334
2774.26524,0.01321
2772.20565,0.01308
2770.14606,0.01299
2768.08647,0.01295
2766.02688,0.01292
2763.96729,0.01287
2761.90771,0.01288
2759.84812,0.01291
2757.78853,0.01289
2755.72894,0.01287
2753.66935,0.01288
2751.60977,0.01286
2749.55018,0.01286
2747.49059,0.01286
2745.43100,0.01283
2743.37141,0.01277
2741.31183,0.01272
2739.25224,0.01266
2737.19265,0.01260
2735.13306,0.01261
2733.07347,0.01268
2731.01388,0.01276
2728.95430,0.01281
2726.89471,0.01283
2724.83512,0.01280
2722.77553,0.01272
2720.71594,0.01263
2718.65636,0.01262
2716.59677,0.01261
2714.53718,0.01255
2712.47759,0.01258
2710.41800,0.01269
2708.35841,0.01277
2706.29883,0.01278
2704.23924,0.01279
2702.17965,0.01279
2700.12006,0.01276
2698.06047,0.01271
2696.00089,0.01264
2693.94130,0.01257
2691.88171,0.01260
2689.82212,0.01270
2687.76253,0.01275
2685.70295,0.01275
2683.64336,0.01277
2681.58377,0.01278
2679.52418,0.01276
2677.46459,0.01274
2675.40500,0.01272
2673.34542,0.01272
2671.28583,0.01279
2669.22624,0.01283
2667.16665,0.01277
2665.10706,0.01268
2663.04748,0.01274
2660.98789,0.01283
2658.92830,0.01280
2656.86871,0.01277
2654.80912,0.01285
2652.74953,0.01295
2650.68995,0.01298
2648.63036,0.01294
2646.57077,0.01289
2644.51118,0.01286
2642.45159,0.01284
2640.39201,0.01277
2638.33242,0.01271
2636.27283,0.01272
2634.21324,0.01281
2632.15365,0.01288
2630.09407,0.01286
2628.03448,0.01273
2625.97489,0.01262
2623.91530,0.01258
2621.85571,0.01251
2619.79612,0.01244
2617.73654,0.01244
2615.67695,0.01242
2613.61736,0.01241
2611.55777,0.01257
2609.49818,0.01281
2607.43860,0.01296
2605.37901,0.01293
2603.31942,0.01273
2601.25983,0.01260
2599.20024,0.01259
2597.14065,0.01253
2595.08107,0.01245
2593.02148,0.01247
2590.96189,0.01256
2588.90230,0.01265
2586.84271,0.01274
2584.78313,0.01271
2582.72354,0.01255
2580.66395,0.01234
2578.60436,0.01234
2576.54477,0.01248
2574.48519,0.01239
2572.42560,0.01226
2570.36601,0.01234
2568.30642,0.01238
2566.24683,0.01227
2564.18724,0.01213
2562.12766,0.01209
2560.06807,0.01214
2558.00848,0.01218
2555.94889,0.01230
2553.88930,0.01246
2551.82972,0.01244
2549.77013,0.01221
2547.71054,0.01194
2545.65095,0.01185
2543.59136,0.01190
2541.53177,0.01193
2539.47219,0.01196
2537.41260,0.01198
2535.35301,0.01195
2533.29342,0.01192
2531.23383,0.01189
2529.17425,0.01185
2527.11466,0.01186
2525.05507,0.01197
2522.99548,0.01210
2520.93589,0.01207
2518.87631,0.01194
2516.81672,0.01194
2514.75713,0.01204
2512.69754,0.01207
2510.63795,0.01196
2508.57836,0.01184
2506.51878,0.01185
2504.45919,0.01200
2502.39960,0.01214
2500.34001,0.01214
2498.28042,0.01204
2496.22084,0.01196
2494.16125,0.01190
2492.10166,0.01178
2490.04207,0.01170
2487.98248,0.01175
2485.92289,0.01185
2483.86331,0.01191
2481.80372,0.01188
2479.74413,0.01181
2477.68454,0.01187
2475.62495,0.01201
2473.56537,0.01202
2471.50578,0.01188
2469.44619,0.01179
2467.38660,0.01192
2465.32701,0.01214
2463.26743,0.01208
2461.20784,0.01179
2459.14825,0.01169
2457.08866,0.01175
2455.02907,0.01169
2452.96948,0.01156
2450.90990,0.01153
2448.85031,0.01166
2446.79072,0.01185
2444.73113,0.01190
2442.67154,0.01183
2440.61196,0.01176
2438.55237,0.01169
2436.49278,0.01162
2434.43319,0.01156
2432.37360,0.01152
2430.31401,0.01146
2428.25443,0.01142
2426.19484,0.01154
2424.13525,0.01183
2422.07566,0.01196
2420.01607,0.01182
2417.95649,0.01166
2415.89690,0.01161
2413.83731,0.01170
2411.77772,0.01180
2409.71813,0.01170
2407.65855,0.01158
2405.59896,0.01156
2403.53937,0.01156
2401.47978,0.01165
2399.42019,0.01171
2397.36060,0.01160
2395.30102,0.01143
2393.24143,0.01133
2391.18184,0.01134
2389.12225,0.01139
2387.06266,0.01152
2385.00308,0.01174
2382.94349,0.01177
2380.88390,0.01160
2378.82431,0.01148
2376.76472,0.01138
2374.70513,0.01138
2372.64555,0.01153
2370.58596,0.01168
2368.52637,0.01182
2366.46678,0.01190
2364.40719,0.01187
2362.34761,0.01202
2360.28802,0.01223
2358.22843,0.01211
2356.16884,0.01191
2354.10925,0.01194
2352.04967,0.01204
2349.99008,0.01211
2347.93049,0.01225
2345.87090,0.01250
2343.81131,0.01259
2341.75172,0.01242
2339.69214,0.01237
2337.63255,0.01248
2335.57296,0.01256
2333.51337,0.01276
2331.45378,0.01295
2329.39420,0.01292
2327.33461,0.01293
2325.27502,0.01308
2323.21543,0.01303
2321.15584,0.01278
2319.09625,0.01261
2317.03667,0.01256
2314.97708,0.01262
2312.91749,0.01268
2310.85790,0.01262
2308.79831,0.01244
2306.73873,0.01233
2304.67914,0.01238
2302.61955,0.01233
2300.55996,0.01211
2298.50037,0.01208
2296.44079,0.01223
2294.38120,0.01224
2292.32161,0.01219
2290.26202,0.01224
2288.20243,0.01226
2286.14284,0.01217
2284.08326,0.01212
2282.02367,0.01207
2279.96408,0.01184
2277.90449,0.01165
2275.84490,0.01165
2273.78532,0.01165
2271.72573,0.01159
2269.66614,0.01159
2267.60655,0.01159
2265.54696,0.01165
2263.48737,0.01172
2261.42779,0.01155
2259.36820,0.01149
2257.30861,0.01156
2255.24902,0.01139
2253.18943,0.01117
2251.12985,0.01117
2249.07026,0.01141
2247.01067,0.01159
2244.95108,0.01147
2242.89149,0.01126
2240.83191,0.01134
2238.77232,0.01148
2236.71273,0.01124
2234.65314,0.01098
2232.59355,0.01120
2230.53396,0.01152
2228.47438,0.01148
2226.41479,0.01121
2224.35520,0.01092
2222.29561,0.01075
2220.23602,0.01066
2218.17644,0.01070
2216.11685,0.01098
2214.05726,0.01107
2211.99767,0.01074
2209.93808,0.01052
2207.87849,0.01057
2205.81891,0.01060
2203.75932,0.01070
2201.69973,0.01088
2199.64014,0.01089
2197.58055,0.01088
2195.52097,0.01093
2193.46138,0.01069
2191.40179,0.01026
2189.34220,0.01012
2187.28261,0.01035
2185.22303,0.01064
2183.16344,0.01079
2181.10385,0.01078
2179.04426,0.01087
2176.98467,0.01076
2174.92508,0.01009
2172.86550,0.00949
2170.80591,0.00939
2168.74632,0.00983
2166.68673,0.01040
2164.62714,0.01048
2162.56756,0.01023
2160.50797,0.00942
2158.44838,0.00820
2156.38879,0.00806
2154.32920,0.00868
2152.26961,0.00901
2150.21003,0.00936
2148.15044,0.00973
2146.09085,0.00965
2144.03126,0.00961
2141.97167,0.01013
2139.91209,0.01061
2137.85250,0.01060
2135.79291,0.01030
2133.73332,0.00998
2131.67373,0.00980
2129.61415,0.00976
2127.55456,0.00972
2125.49497,0.00980
2123.43538,0.01010
2121.37579,0.01035
2119.31620,0.01045
2117.25662,0.01051
2115.19703,0.01061
2113.13744,0.01080
2111.07785,0.01102
2109.01826,0.01118
2106.95868,0.01112
2104.89909,0.01078
2102.83950,0.01054
2100.77991,0.01065
2098.72032,0.01081
2096.66073,0.01070
2094.60115,0.01037
2092.54156,0.01034
2090.48197,0.01070
2088.42238,0.01094
2086.36279,0.01095
2084.30321,0.01089
2082.24362,0.01066
2080.18403,0.01046
2078.12444,0.01049
2076.06485,0.01039
2074.00527,0.01019
2071.94568,0.01023
2069.88609,0.01035
2067.82650,0.01042
2065.76691,0.01045
2063.70732,0.01043
2061.64774,0.01042
2059.58815,0.01031
2057.52856,0.01009
2055.46897,0.00993
2053.40938,0.00997
2051.34980,0.01004
2049.29021,0.00991
2047.23062,0.00988
2045.17103,0.01014
2043.11144,0.01027
2041.05185,0.01010
2038.99227,0.00982
2036.93268,0.00944
2034.87309,0.00902
2032.81350,0.00888
2030.75391,0.00901
2028.69433,0.00917
2026.63474,0.00916
2024.57515,0.00903
2022.51556,0.00910
2020.45597,0.00950
2018.39639,0.00961
2016.33680,0.00917
2014.27721,0.00897
2012.21762,0.00939
2010.15803,0.00993
2008.09844,0.01002
2006.03886,0.00969
2003.97927,0.00927
2001.91968,0.00931
1999.86009,0.01003
1997.80050,0.01079
1995.74092,0.01137
1993.68133,0.01187
1991.62174,0.01184
1989.56215,0.01134
1987.50256,0.01112
1985.44297,0.01133
1983.38339,0.01147
1981.32380,0.01129
1979.26421,0.01080
1977.20462,0.01019
1975.14503,0.00988
1973.08545,0.00970
1971.02586,0.00961
1968.96627,0.01010
1966.90668,0.01082
1964.84709,0.01100
1962.78751,0.01114
1960.72792,0.01170
1958.66833,0.01212
1956.60874,0.01227
1954.54915,0.01243
1952.48956,0.01264
1950.42998,0.01289
1948.37039,0.01317
1946.31080,0.01342
1944.25121,0.01357
1942.19162,0.01371
1940.13204,0.01391
1938.07245,0.01395
1936.01286,0.01360
1933.95327,0.01315
1931.89368,0.01297
1929.83409,0.01275
1927.77451,0.01228
1925.71492,0.01188
1923.65533,0.01145
1921.59574,0.01095
1919.53615,0.01070
1917.47657,0.01074
1915.41698,0.01089
1913.35739,0.01102
1911.29780,0.01118
1909.23821,0.01142
1907.17863,0.01164
1905.11904,0.01174
1903.05945,0.01174
1900.99986,0.01177
1898.94027,0.01182
1896.88068,0.01189
1894.82110,0.01208
1892.76151,0.01238
1890.70192,0.01276
1888.64233,0.01325
1886.58274,0.01360
1884.52316,0.01376
1882.46357,0.01399
1880.40398,0.01433
1878.34439,0.01453
1876.28480,0.01455
1874.22521,0.01451
1872.16563,0.01454
1870.10604,0.01482
1868.04645,0.01510
1865.98686,0.01505
1863.92727,0.01469
1861.86769,0.01423
1859.80810,0.01381
1857.74851,0.01332
1855.68892,0.01282
1853.62933,0.01252
1851.56975,0.01239
1849.51016,0.01231
1847.45057,0.01225
1845.39098,0.01217
1843.33139,0.01212
1841.27180,0.01212
1839.21222,0.01207
1837.15263,0.01204
1835.09304,0.01218
1833.03345,0.01235
1830.97386,0.01242
1828.91428,0.01250
1826.85469,0.01271
1824.79510,0.01292
1822.73551,0.01306
1820.67592,0.01326
1818.61633,0.01351
1816.55675,0.01376
1814.49716,0.01418
1812.43757,0.01473
1810.37798,0.01515
1808.31839,0.01542
1806.25881,0.01569
1804.19922,0.01589
1802.13963,0.01605
1800.08004,0.01618
1798.02045,0.01605
1795.96087,0.01560
1793.90128,0.01508
1791.84169,0.01458
1789.78210,0.01412
1787.72251,0.01380
1785.66292,0.01361
1783.60334,0.01352
1781.54375,0.01351
1779.48416,0.01356
1777.42457,0.01363
1775.36498,0.01375
1773.30540,0.01381
1771.24581,0.01371
1769.18622,0.01364
1767.12663,0.01368
1765.06704,0.01381
1763.00745,0.01398
1760.94787,0.01412
1758.88828,0.01432
1756.82869,0.01475
1754.76910,0.01525
1752.70951,0.01558
1750.64993,0.01579
1748.59034,0.01607
1746.53075,0.01633
1744.47116,0.01640
1742.41157,0.01634
1740.35199,0.01626
1738.29240,0.01615
1736.23281,0.01610
1734.17322,0.01606
1732.11363,0.01593
1730.05404,0.01575
1727.99446,0.01554
1725.93487,0.01537
1723.87528,0.01525
1721.81569,0.01516
1719.75610,0.01517
1717.69652,0.01524
1715.63693,0.01525
1713.57734,0.01517
1711.51775,0.01505
1709.45816,0.01493
1707.39857,0.01481
1705.33899,0.01470
1703.27940,0.01463
1701.21981,0.01451
1699.16022,0.01440
1697.10063,0.01442
1695.04105,0.01448
1692.98146,0.01450
1690.92187,0.01447
1688.86228,0.01446
1686.80269,0.01455
1684.74311,0.01472
1682.68352,0.01480
1680.62393,0.01480
1678.56434,0.01486
1676.50475,0.01495
1674.44516,0.01506
1672.38558,0.01516
1670.32599,0.01520
1668.26640,0.01520
1666.20681,0.01520
1664.14722,0.01515
1662.08764,0.01503
1660.02805,0.01492
1657.96846,0.01479
1655.90887,0.01466
1653.84928,0.01465
1651.78969,0.01480
1649.73011,0.01484
1647.67052,0.01474
1645.61093,0.01452
1643.55134,0.01434
1641.49175,0.01421
1639.43217,0.01405
1637.37258,0.01392
1635.31299,0.01391
1633.25340,0.01392
1631.19381,0.01387
1629.13423,0.01385
1627.07464,0.01392
1625.01505,0.01401
1622.95546,0.01408
1620.89587,0.01414
1618.83628,0.01431
1616.77670,0.01464
1614.71711,0.01513
1612.65752,0.01593
1610.59793,0.01764
1608.53834,0.02112
1606.47876,0.02686
1604.41917,0.03420
1602.35958,0.04080
1600.29999,0.04291
1598.24040,0.03942
1596.18081,0.03330
1594.12123,0.02787
1592.06164,0.02423
1590.00205,0.02217
1587.94246,0.02174
1585.88287,0.02305
1583.82329,0.02472
1581.76370,0.02445
1579.70411,0.02208
1577.64452,0.01939
1575.58493,0.01743
1573.52535,0.01639
1571.46576,0.01583
1569.40617,0.01538
1567.34658,0.01501
1565.28699,0.01474
1563.22740,0.01454
1561.16782,0.01447
1559.10823,0.01466
1557.04864,0.01489
1554.98905,0.01491
1552.92946,0.01495
1550.86988,0.01510
1548.81029,0.01532
1546.75070,0.01558
1544.69111,0.01591
1542.63152,0.01618
1540.57193,0.01622
1538.51235,0.01608
1536.45276,0.01581
1534.39317,0.01534
1532.33358,0.01482
1530.27399,0.01451
1528.21441,0.01424
1526.15482,0.01398
1524.09523,0.01377
1522.03564,0.01361
1519.97605,0.01358
1517.91647,0.01367
1515.85688,0.01381
1513.79729,0.01397
1511.73770,0.01405
1509.67811,0.01409
1507.61852,0.01445
1505.55894,0.01545
1503.49935,0.01672
1501.43976,0.01897
1499.38017,0.02478
1497.32058,0.03988
1495.26100,0.06482
1493.20141,0.08423
1491.14182,0.08467
1489.08223,0.06688
1487.02264,0.04806
1484.96305,0.03653
1482.90347,0.02947
1480.84388,0.02491
1478.78429,0.02217
1476.72470,0.02061
1474.66511,0.01970
1472.60553,0.01920
1470.54594,0.01899
1468.48635,0.01895
1466.42676,0.01907
1464.36717,0.01965
1462.30759,0.02084
1460.24800,0.02322
1458.18841,0.03142
1456.12882,0.05271
1454.06923,0.07650
1452.00964,0.08997
1449.95006,0.08960
1447.89047,0.07992
1445.83088,0.06974
1443.77129,0.06154
1441.71170,0.05433
1439.65212,0.04826
1437.59253,0.04248
1435.53294,0.03652
1433.47335,0.03198
1431.41376,0.02857
1429.35417,0.02572
1427.29459,0.02372
1425.23500,0.02247
1423.17541,0.02164
1421.11582,0.02104
1419.05623,0.02051
1416.99665,0.02010
1414.93706,0.01983
1412.87747,0.01953
1410.81788,0.01924
1408.75829,0.01902
1406.69871,0.01888
1404.63912,0.01874
1402.57953,0.01864
1400.51994,0.01869
1398.46035,0.01890
1396.40076,0.01919
1394.34118,0.01967
1392.28159,0.02034
1390.22200,0.02119
1388.16241,0.02233
1386.10282,0.02366
1384.04324,0.02483
1381.98365,0.02581
1379.92406,0.02684
1377.86447,0.02797
1375.80488,0.02902
1373.74529,0.02980
1371.68571,0.03018
1369.62612,0.03019
1367.56653,0.03002
1365.50694,0.02976
1363.44735,0.02944
1361.38777,0.02909
1359.32818,0.02865
1357.26859,0.02818
1355.20900,0.02784
1353.14941,0.02768
1351.08983,0.02760
1349.03024,0.02747
1346.97065,0.02718
1344.91106,0.02675
1342.85147,0.02623
1340.79188,0.02566
1338.73230,0.02527
1336.67271,0.02535
1334.61312,0.02592
1332.55353,0.02673
1330.49394,0.02742
1328.43436,0.02775
1326.37477,0.02766
1324.31518,0.02725
1322.25559,0.02679
1320.19600,0.02656
1318.13641,0.02663
1316.07683,0.02698
1314.01724,0.02736
1311.95765,0.02754
1309.89806,0.02745
1307.83847,0.02709
1305.77889,0.02657
1303.71930,0.02599
1301.65971,0.02539
1299.60012,0.02488
1297.54053,0.02454
1295.48095,0.02433
1293.42136,0.02413
1291.36177,0.02387
1289.30218,0.02355
1287.24259,0.02330
1285.18300,0.02320
1283.12342,0.02319
1281.06383,0.02317
1279.00424,0.02302
1276.94465,0.02262
1274.88506,0.02208
1272.82548,0.02165
1270.76589,0.02133
1268.70630,0.02104
1266.64671,0.02070
1264.58712,0.02039
1262.52753,0.02018
1260.46795,0.02005
1258.40836,0.01997
1256.34877,0.02000
1254.28918,0.02009
1252.22959,0.02019
1250.17001,0.02030
1248.11042,0.02038
1246.05083,0.02036
1243.99124,0.02028
1241.93165,0.02025
1239.87207,0.02021
1237.81248,0.02011
1235.75289,0.02002
1233.69330,0.01999
1231.63371,0.01997
1229.57412,0.01999
1227.51454,0.02008
1225.45495,0.02012
1223.39536,0.02006
1221.33577,0.01999
1219.27618,0.02000
1217.21660,0.02006
1215.15701,0.02020
1213.09742,0.02038
1211.03783,0.02060
1208.97824,0.02089
1206.91865,0.02135
1204.85907,0.02205
1202.79948,0.02282
1200.73989,0.02349
1198.68030,0.02403
1196.62071,0.02446
1194.56113,0.02478
1192.50154,0.02496
1190.44195,0.02514
1188.38236,0.02556
1186.32277,0.02652
1184.26319,0.02805
1182.20360,0.02947
1180.14401,0.02958
1178.08442,0.02802
1176.02483,0.02577
1173.96524,0.02393
1171.90566,0.02276
1169.84607,0.02213
1167.78648,0.02190
1165.72689,0.02196
1163.66730,0.02228
1161.60772,0.02307
1159.54813,0.02480
1157.48854,0.02733
1155.42895,0.02940
1153.36936,0.02957
1151.30977,0.02770
1149.25019,0.02506
1147.19060,0.02289
1145.13101,0.02140
1143.07142,0.02031
1141.01183,0.01953
1138.95225,0.01899
1136.89266,0.01864
1134.83307,0.01841
1132.77348,0.01824
1130.71389,0.01816
1128.65431,0.01817
1126.59472,0.01819
1124.53513,0.01830
1122.47554,0.01858
1120.41595,0.01896
1118.35636,0.01947
1116.29678,0.02009
1114.23719,0.02056
1112.17760,0.02077
1110.11801,0.02082
1108.05842,0.02075
1105.99884,0.02060
1103.93925,0.02051
1101.87966,0.02053
1099.82007,0.02074
1097.76048,0.02112
1095.70089,0.02144
1093.64131,0.02165
1091.58172,0.02191
1089.52213,0.02236
1087.46254,0.02293
1085.40295,0.02375
1083.34337,0.02492
1081.28378,0.02618
1079.22419,0.02740
1077.16460,0.02891
1075.10501,0.03089
1073.04543,0.03312
1070.98584,0.03513
1068.92625,0.03629
1066.86666,0.03612
1064.80707,0.03472
1062.74748,0.03278
1060.68790,0.03085
1058.62831,0.02919
1056.56872,0.02791
1054.50913,0.02695
1052.44954,0.02610
1050.38996,0.02533
1048.33037,0.02471
1046.27078,0.02421
1044.21119,0.02386
1042.15160,0.02379
1040.09201,0.02422
1038.03243,0.02567
1035.97284,0.02926
1033.91325,0.03588
1031.85366,0.04448
1029.79407,0.05195
1027.73449,0.05520
1025.67490,0.05328
1023.61531,0.04824
1021.55572,0.04297
1019.49613,0.03876
1017.43655,0.03565
1015.37696,0.03335
1013.31737,0.03155
1011.25778,0.03029
1009.19819,0.02964
1007.13860,0.02970
1005.07902,0.03038
1003.01943,0.03076
1000.95984,0.02972
998.90025,0.02769
996.84066,0.02600
994.78108,0.02516
992.72149,0.02493
990.66190,0.02501
988.60231,0.02539
986.54272,0.02608
984.48313,0.02701
982.42355,0.02798
980.36396,0.02859
978.30437,0.02853
976.24478,0.02801
974.18519,0.02745
972.12561,0.02733
970.06602,0.02795
968.00643,0.02908
965.94684,0.03018
963.88725,0.03062
961.82767,0.02999
959.76808,0.02846
957.70849,0.02680
955.64890,0.02562
953.58931,0.02503
951.52972,0.02481
949.47014,0.02496
947.41055,0.02550
945.35096,0.02610
943.29137,0.02642
941.23178,0.02626
939.17220,0.02562
937.11261,0.02467
935.05302,0.02364
932.99343,0.02270
930.93384,0.02199
928.87425,0.02159
926.81467,0.02146
924.75508,0.02164
922.69549,0.02214
920.63590,0.02291
918.57631,0.02402
916.51673,0.02578
914.45714,0.02861
912.39755,0.03256
910.33796,0.03704
908.27837,0.04093
906.21879,0.04288
904.15920,0.04204
902.09961,0.03870
900.04002,0.03408
897.98043,0.02963
895.92084,0.02636
893.86126,0.02439
891.80167,0.02318
889.74208,0.02226
887.68249,0.02151
885.62290,0.02093
883.56332,0.02053
881.50373,0.02026
879.44414,0.01996
877.38455,0.01965
875.32496,0.01934
873.26537,0.01903
871.20579,0.01877
869.14620,0.01861
867.08661,0.01840
865.02702,0.01809
862.96743,0.01795
860.90785,0.01807
858.84826,0.01815
856.78867,0.01817
854.72908,0.01840
852.66949,0.01907
850.60991,0.02027
848.55032,0.02196
846.49073,0.02388
844.43114,0.02541
842.37155,0.02627
840.31196,0.02632
838.25238,0.02529
836.19279,0.02330
834.13320,0.02112
832.07361,0.01931
830.01402,0.01803
827.95444,0.01729
825.89485,0.01700
823.83526,0.01679
821.77567,0.01636
819.71608,0.01597
817.65649,0.01593
815.59691,0.01611
813.53732,0.01623
811.47773,0.01630
809.41814,0.01660
807.35855,0.01691
805.29897,0.01694
803.23938,0.01702
801.17979,0.01737
799.12020,0.01785
797.06061,0.01842
795.00103,0.01917
792.94144,0.02014
790.88185,0.02140
788.82226,0.02306
786.76267,0.02517
784.70308,0.02758
782.64350,0.03015
780.58391,0.03330
778.52432,0.03770
776.46473,0.04362
774.40514,0.05089
772.34556,0.05956
770.28597,0.06973
768.22638,0.08086
766.16679,0.09214
764.10720,0.10344
762.04761,0.11521
759.98803,0.12726
757.92844,0.13804
755.86885,0.14563
753.80926,0.14922
751.74967,0.15022
749.69009,0.15061
747.63050,0.14960
745.57091,0.14350
743.51132,0.12999
741.45173,0.11173
739.39215,0.09342
737.33256,0.07716
735.27297,0.06254
733.21338,0.04948
731.15379,0.03908
729.09420,0.03195
727.03462,0.02739
724.97503,0.02462
722.91544,0.02307
720.85585,0.02221
718.79626,0.02199
716.73668,0.02267
714.67709,0.02484
712.61750,0.03009
710.55791,0.04106
708.49832,0.06095
706.43873,0.09280
704.37915,0.13833
702.31956,0.19726
700.25997,0.26748
698.20038,0.34434
696.14079,0.41408
694.08121,0.44476
692.02162,0.41329
689.96203,0.34369
687.90244,0.27433
685.84285,0.22089
683.78327,0.18258
681.72368,0.15522
679.66409,0.13560
677.60450,0.12138
675.54491,0.11092
673.48532,0.10302
671.42574,0.09689
669.36615,0.09087
667.30656,0.08368
665.24697,0.07778
663.18738,0.07274
661.12780,0.06763
659.06821,0.06294
657.00862,0.05857
654.94903,0.05463
652.88944,0.05147
650.82985,0.04898
648.77027,0.04689
646.71068,0.04519
644.65109,0.04374
642.59150,0.04260
640.53191,0.04209
638.47233,0.04233
636.41274,0.04324
634.35315,0.04440
632.29356,0.04526
630.23397,0.04575
628.17439,0.04609
626.11480,0.04658
624.05521,0.04759
621.99562,0.04889
619.93603,0.04906
617.87644,0.04750
615.81686,0.04562
613.75727,0.04424
611.69768,0.04307
609.63809,0.04204
607.57850,0.04132
605.51892,0.04089
603.45933,0.04070
601.39974,0.04068
599.34015,0.04078
597.28056,0.04098
595.22097,0.04139
593.16139,0.04202
591.10180,0.04277
589.04221,0.04359
586.98262,0.04441
584.92303,0.04529
582.86345,0.04631
580.80386,0.04768
578.74427,0.04976
576.68468,0.05281
574.62509,0.05665
572.56551,0.06076
570.50592,0.06479
568.44633,0.06864
566.38674,0.07238
564.32715,0.07611
562.26756,0.08008
560.20798,0.08463
558.14839,0.08928
556.08880,0.09344
554.02921,0.09781
551.96962,0.10314
549.91004,0.10940
547.85045,0.11688
545.79086,0.12613
543.73127,0.13699
541.67168,0.14845
539.61209,0.15830
537.55251,0.16340
535.49292,0.16152
533.43333,0.15290
531.37374,0.14022
529.31415,0.12617
527.25457,0.11229
525.19498,0.10003
523.13539,0.09043
521.07580,0.08312
519.01621,0.07764
516.95663,0.07335
514.89704,0.06946
512.83745,0.06600
510.77786,0.06292
508.71827,0.05990
506.65868,0.05703
504.59910,0.05461
502.53951,0.05252
500.47992,0.05058
498.42033,0.04892
496.36074,0.04754
494.30116,0.04637
492.24157,0.04525
490.18198,0.04411
488.12239,0.04324
486.06280,0.04252
484.00321,0.04184
481.94363,0.04121
479.88404,0.04039
477.82445,0.03974
475.76486,0.03943
473.70527,0.03907
471.64569,0.03852
469.58610,0.03756
467.52651,0.03643
465.46692,0.03577
463.40733,0.03532
461.34775,0.03459
459.28816,0.03380
457.22857,0.03362
455.16898,0.03369
453.10939,0.03321
451.04980,0.03269
448.99022,0.03257
446.93063,0.03227
444.87104,0.03197
442.81145,0.03230
440.75186,0.03241
438.69228,0.03162
436.63269,0.03061
434.57310,0.03043
432.51351,0.03086
430.45392,0.03047
428.39433,0.02930
426.33475,0.02843
424.27516,0.02801
422.21557,0.02789
420.15598,0.02839
418.09639,0.02907
416.03681,0.02897
413.97722,0.02918
411.91763,0.03014
409.85804,0.03043
407.79845,0.03035
405.73887,0.03129
403.67928,0.03256
401.61969,0.03308
399.56010,0.03239
