4096.56134,0.00093
4094.50173,0.00116
4092.44213,0.00103
4090.38252,0.00051
4088.32291,0.00055
4086.26330,0.00119
4084.20369,0.00137
4082.14408,0.00086
4080.08447,0.00019
4078.02487,0.00000
4075.96526,0.00048
4073.90565,0.00087
4071.84604,0.00055
4069.78643,0.00014
4067.72682,0.00045
4065.66721,0.00118
4063.60761,0.00151
4061.54800,0.00151
4059.48839,0.00182
4057.42878,0.00228
4055.36917,0.00247
4053.30956,0.00235
4051.24995,0.00227
4049.19035,0.00241
4047.13074,0.00256
4045.07113,0.00269
4043.01152,0.00290
4040.95191,0.00310
4038.89230,0.00332
4036.83270,0.00318
4034.77309,0.00256
4032.71348,0.00197
4030.65387,0.00158
4028.59426,0.00165
4026.53465,0.00214
4024.47504,0.00249
4022.41544,0.00264
4020.35583,0.00276
4018.29622,0.00276
4016.23661,0.00252
4014.17700,0.00265
4012.11739,0.00347
4010.05778,0.00406
4007.99818,0.00380
4005.93857,0.00324
4003.87896,0.00310
4001.81935,0.00321
3999.75974,0.00303
3997.70013,0.00310
3995.64052,0.00362
3993.58092,0.00383
3991.52131,0.00362
3989.46170,0.00318
3987.40209,0.00293
3985.34248,0.00348
3983.28287,0.00421
3981.22327,0.00449
3979.16366,0.00432
3977.10405,0.00355
3975.04444,0.00259
3972.98483,0.00223
3970.92522,0.00260
3968.86561,0.00324
3966.80601,0.00356
3964.74640,0.00350
3962.68679,0.00350
3960.62718,0.00381
3958.56757,0.00427
3956.50796,0.00401
3954.44835,0.00292
3952.38875,0.00220
3950.32914,0.00246
3948.26953,0.00335
3946.20992,0.00398
3944.15031,0.00398
3942.09070,0.00396
3940.03109,0.00420
3937.97149,0.00448
3935.91188,0.00450
3933.85227,0.00413
3931.79266,0.00356
3929.73305,0.00299
3927.67344,0.00280
3925.61384,0.00318
3923.55423,0.00362
3921.49462,0.00376
3919.43501,0.00379
3917.37540,0.00399
3915.31579,0.00441
3913.25618,0.00463
3911.19658,0.00433
3909.13697,0.00399
3907.07736,0.00402
3905.01775,0.00433
3902.95814,0.00456
3900.89853,0.00432
3898.83892,0.00405
3896.77932,0.00404
3894.71971,0.00389
3892.66010,0.00364
3890.60049,0.00348
3888.54088,0.00324
3886.48127,0.00323
3884.42166,0.00372
3882.36206,0.00417
3880.30245,0.00433
3878.24284,0.00428
3876.18323,0.00420
3874.12362,0.00419
3872.06401,0.00391
3870.00441,0.00353
3867.94480,0.00340
3865.88519,0.00349
3863.82558,0.00377
3861.76597,0.00397
3859.70636,0.00371
3857.64675,0.00328
3855.58715,0.00364
3853.52754,0.00480
3851.46793,0.00501
3849.40832,0.00407
3847.34871,0.00344
3845.28910,0.00368
3843.22949,0.00407
3841.16989,0.00384
3839.11028,0.00322
3837.05067,0.00292
3834.99106,0.00320
3832.93145,0.00352
3830.87184,0.00347
3828.81223,0.00349
3826.75263,0.00385
3824.69302,0.00393
3822.63341,0.00373
3820.57380,0.00395
3818.51419,0.00443
3816.45458,0.00468
3814.39498,0.00454
3812.33537,0.00374
3810.27576,0.00271
3808.21615,0.00258
3806.15654,0.00354
3804.09693,0.00430
3802.03732,0.00410
3799.97772,0.00329
3797.91811,0.00260
3795.85850,0.00239
3793.79889,0.00236
3791.73928,0.00253
3789.67967,0.00286
3787.62006,0.00283
3785.56046,0.00266
3783.50085,0.00297
3781.44124,0.00356
3779.38163,0.00404
3777.32202,0.00426
3775.26241,0.00411
3773.20280,0.00364
3771.14320,0.00318
3769.08359,0.00315
3767.02398,0.00326
3764.96437,0.00301
3762.90476,0.00257
3760.84515,0.00257
3758.78555,0.00307
3756.72594,0.00335
3754.66633,0.00344
3752.60672,0.00396
3750.54711,0.00436
3748.48750,0.00388
3746.42789,0.00360
3744.36829,0.00417
3742.30868,0.00420
3740.24907,0.00322
3738.18946,0.00225
3736.12985,0.00181
3734.07024,0.00157
3732.01063,0.00126
3729.95103,0.00103
3727.89142,0.00107
3725.83181,0.00139
3723.77220,0.00167
3721.71259,0.00159
3719.65298,0.00132
3717.59337,0.00090
3715.53377,0.00041
3713.47416,0.00070
3711.41455,0.00195
3709.35494,0.00244
3707.29533,0.00153
3705.23572,0.00059
3703.17612,0.00053
3701.11651,0.00115
3699.05690,0.00180
3696.99729,0.00166
3694.93768,0.00096
3692.87807,0.00079
3690.81846,0.00136
3688.75886,0.00185
3686.69925,0.00170
3684.63964,0.00131
3682.58003,0.00098
3680.52042,0.00045
3678.46081,0.00000
3676.40120,0.00032
3674.34160,0.00123
3672.28199,0.00188
3670.22238,0.00243
3668.16277,0.00305
3666.10316,0.00304
3664.04355,0.00236
3661.98394,0.00180
3659.92434,0.00169
3657.86473,0.00165
3655.80512,0.00125
3653.74551,0.00059
3651.68590,0.00055
3649.62629,0.00168
3647.56669,0.00297
3645.50708,0.00330
3643.44747,0.00302
3641.38786,0.00289
3639.32825,0.00312
3637.26864,0.00357
3635.20903,0.00415
3633.14943,0.00468
3631.08982,0.00501
3629.03021,0.00554
3626.97060,0.00583
3624.91099,0.00523
3622.85138,0.00471
3620.79177,0.00531
3618.73217,0.00630
3616.67256,0.00628
3614.61295,0.00575
3612.55334,0.00597
3610.49373,0.00700
3608.43412,0.00809
3606.37451,0.00850
3604.31491,0.00849
3602.25530,0.00882
3600.19569,0.00931
3598.13608,0.00961
3596.07647,0.01006
3594.01686,0.01041
3591.95726,0.01017
3589.89765,0.01016
3587.83804,0.01106
3585.77843,0.01180
3583.71882,0.01192
3581.65921,0.01241
3579.59960,0.01332
3577.54000,0.01376
3575.48039,0.01373
3573.42078,0.01389
3571.36117,0.01441
3569.30156,0.01546
3567.24195,0.01690
3565.18234,0.01765
3563.12274,0.01743
3561.06313,0.01715
3559.00352,0.01721
3556.94391,0.01752
3554.88430,0.01834
3552.82469,0.01956
3550.76508,0.02048
3548.70548,0.02102
3546.64587,0.02164
3544.58626,0.02232
3542.52665,0.02272
3540.46704,0.02278
3538.40743,0.02263
3536.34783,0.02256
3534.28822,0.02285
3532.22861,0.02341
3530.16900,0.02407
3528.10939,0.02484
3526.04978,0.02587
3523.99017,0.02692
3521.93057,0.02776
3519.87096,0.02855
3517.81135,0.02911
3515.75174,0.02922
3513.69213,0.02951
3511.63252,0.03020
3509.57291,0.03079
3507.51331,0.03133
3505.45370,0.03194
3503.39409,0.03268
3501.33448,0.03365
3499.27487,0.03444
3497.21526,0.03475
3495.15565,0.03511
3493.09605,0.03603
3491.03644,0.03729
3488.97683,0.03796
3486.91722,0.03805
3484.85761,0.03843
3482.79800,0.03912
3480.73840,0.03986
3478.67879,0.04067
3476.61918,0.04147
3474.55957,0.04213
3472.49996,0.04282
3470.44035,0.04355
3468.38074,0.04402
3466.32114,0.04462
3464.26153,0.04538
3462.20192,0.04581
3460.14231,0.04639
3458.08270,0.04735
3456.02309,0.04809
3453.96348,0.04862
3451.90388,0.04924
3449.84427,0.04996
3447.78466,0.05072
3445.72505,0.05134
3443.66544,0.05191
3441.60583,0.05273
3439.54622,0.05377
3437.48662,0.05463
3435.42701,0.05508
3433.36740,0.05566
3431.30779,0.05676
3429.24818,0.05820
3427.18857,0.05958
3425.12897,0.06052
3423.06936,0.06126
3421.00975,0.06188
3418.95014,0.06236
3416.89053,0.06317
3414.83092,0.06434
3412.77131,0.06519
3410.71171,0.06541
3408.65210,0.06558
3406.59249,0.06644
3404.53288,0.06766
3402.47327,0.06878
3400.41366,0.06994
3398.35405,0.07122
3396.29445,0.07232
3394.23484,0.07277
3392.17523,0.07286
3390.11562,0.07321
3388.05601,0.07404
3385.99640,0.07517
3383.93679,0.07638
3381.87719,0.07767
3379.81758,0.07886
3377.75797,0.07989
3375.69836,0.08085
3373.63875,0.08164
3371.57914,0.08238
3369.51954,0.08330
3367.45993,0.08425
3365.40032,0.08524
3363.34071,0.08629
3361.28110,0.08727
3359.22149,0.08859
3357.16188,0.09031
3355.10228,0.09181
3353.04267,0.09293
3350.98306,0.09424
3348.92345,0.09585
3346.86384,0.09733
3344.80423,0.09896
3342.74462,0.10098
3340.68502,0.10319
3338.62541,0.10565
3336.56580,0.10816
3334.50619,0.11029
3332.44658,0.11192
3330.38697,0.11355
3328.32736,0.11556
3326.26776,0.11781
3324.20815,0.12036
3322.14854,0.12329
3320.08893,0.12611
3318.02932,0.12848
3315.96971,0.13095
3313.91011,0.13381
3311.85050,0.13653
3309.79089,0.13918
3307.73128,0.14231
3305.67167,0.14570
3303.61206,0.14905
3301.55245,0.15223
3299.49285,0.15502
3297.43324,0.15759
3295.37363,0.16019
3293.31402,0.16291
3291.25441,0.16609
3289.19480,0.16976
3287.13519,0.17305
3285.07559,0.17550
3283.01598,0.17721
3280.95637,0.17832
3278.89676,0.17937
3276.83715,0.18079
3274.77754,0.18195
3272.71793,0.18233
3270.65833,0.18214
3268.59872,0.18147
3266.53911,0.18044
3264.47950,0.17921
3262.41989,0.17779
3260.36028,0.17621
3258.30068,0.17436
3256.24107,0.17218
3254.18146,0.16979
3252.12185,0.16717
3250.06224,0.16436
3248.00263,0.16149
3245.94302,0.15897
3243.88342,0.15713
3241.82381,0.15535
3239.76420,0.15303
3237.70459,0.15071
3235.64498,0.14882
3233.58537,0.14717
3231.52576,0.14567
3229.46616,0.14421
3227.40655,0.14256
3225.34694,0.14076
3223.28733,0.13895
3221.22772,0.13733
3219.16811,0.13589
3217.10850,0.13451
3215.04890,0.13318
3212.98929,0.13162
3210.92968,0.12984
3208.87007,0.12844
3206.81046,0.12790
3204.75085,0.12783
3202.69125,0.12730
3200.63164,0.12602
3198.57203,0.12442
3196.51242,0.12271
3194.45281,0.12099
3192.39320,0.11965
3190.33359,0.11871
3188.27399,0.11773
3186.21438,0.11663
3184.15477,0.11547
3182.09516,0.11404
3180.03555,0.11253
3177.97594,0.11118
3175.91633,0.10988
3173.85673,0.10877
3171.79712,0.10780
3169.73751,0.10656
3167.67790,0.10496
3165.61829,0.10322
3163.55868,0.10165
3161.49907,0.10041
3159.43947,0.09953
3157.37986,0.09880
3155.32025,0.09770
3153.26064,0.09625
3151.20103,0.09476
3149.14142,0.09320
3147.08182,0.09182
3145.02221,0.09102
3142.96260,0.09065
3140.90299,0.09007
3138.84338,0.08910
3136.78377,0.08816
3134.72416,0.08734
3132.66456,0.08655
3130.60495,0.08566
3128.54534,0.08457
3126.48573,0.08375
3124.42612,0.08356
3122.36651,0.08340
3120.30690,0.08267
3118.24730,0.08188
3116.18769,0.08150
3114.12808,0.08107
3112.06847,0.08033
3110.00886,0.07988
3107.94925,0.07988
3105.88965,0.07986
3103.83004,0.07975
3101.77043,0.07983
3099.71082,0.08002
3097.65121,0.08008
3095.59160,0.08034
3093.53199,0.08073
3091.47239,0.08094
3089.41278,0.08120
3087.35317,0.08149
3085.29356,0.08157
3083.23395,0.08163
3081.17434,0.08172
3079.11473,0.08190
3077.05513,0.08202
3074.99552,0.08190
3072.93591,0.08178
3070.87630,0.08203
3068.81669,0.08247
3066.75708,0.08260
3064.69747,0.08227
3062.63787,0.08159
3060.57826,0.08071
3058.51865,0.07998
3056.45904,0.07961
3054.39943,0.07943
3052.33982,0.07922
3050.28022,0.07873
3048.22061,0.07786
3046.16100,0.07691
3044.10139,0.07610
3042.04178,0.07537
3039.98217,0.07433
3037.92256,0.07308
3035.86296,0.07249
3033.80335,0.07248
3031.74374,0.07218
3029.68413,0.07145
3027.62452,0.07065
3025.56491,0.06982
3023.50530,0.06901
3021.44570,0.06831
3019.38609,0.06752
3017.32648,0.06677
3015.26687,0.06655
3013.20726,0.06677
3011.14765,0.06687
3009.08804,0.06663
3007.02844,0.06619
3004.96883,0.06580
3002.90922,0.06550
3000.84961,0.06507
2998.79000,0.06438
2996.73039,0.06365
2994.67079,0.06366
2992.61118,0.06446
2990.55157,0.06540
2988.49196,0.06640
2986.43235,0.06742
2984.37274,0.06832
2982.31313,0.06931
2980.25353,0.07068
2978.19392,0.07241
2976.13431,0.07424
2974.07470,0.07615
2972.01509,0.07820
2969.95548,0.08025
2967.89587,0.08221
2965.83627,0.08420
2963.77666,0.08624
2961.71705,0.08803
2959.65744,0.08926
2957.59783,0.08984
2955.53822,0.08982
2953.47861,0.08936
2951.41901,0.08877
2949.35940,0.08828
2947.29979,0.08792
2945.24018,0.08837
2943.18057,0.09029
2941.12096,0.09311
2939.06136,0.09624
2937.00175,0.09959
2934.94214,0.10321
2932.88253,0.10694
2930.82292,0.11018
2928.76331,0.11265
2926.70370,0.11445
2924.64410,0.11533
2922.58449,0.11476
2920.52488,0.11291
2918.46527,0.11015
2916.40566,0.10641
2914.34605,0.10214
2912.28644,0.09817
2910.22684,0.09494
2908.16723,0.09217
2906.10762,0.08946
2904.04801,0.08714
2901.98840,0.08517
2899.92879,0.08332
2897.86918,0.08187
2895.80958,0.08069
2893.74997,0.07933
2891.69036,0.07797
2889.63075,0.07700
2887.57114,0.07631
2885.51153,0.07579
2883.45193,0.07569
2881.39232,0.07606
2879.33271,0.07655
2877.27310,0.07708
2875.21349,0.07791
2873.15388,0.07886
2871.09427,0.07935
2869.03467,0.07893
2866.97506,0.07785
2864.91545,0.07701
2862.85584,0.07712
2860.79623,0.07831
2858.73662,0.08013
2856.67701,0.08165
2854.61741,0.08248
2852.55780,0.08247
2850.49819,0.08120
2848.43858,0.07847
2846.37897,0.07475
2844.31936,0.07099
2842.25975,0.06765
2840.20015,0.06489
2838.14054,0.06304
2836.08093,0.06185
2834.02132,0.06057
2831.96171,0.05924
2829.90210,0.05831
2827.84250,0.05749
2825.78289,0.05662
2823.72328,0.05596
2821.66367,0.05538
2819.60406,0.05472
2817.54445,0.05409
2815.48484,0.05368
2813.42524,0.05340
2811.36563,0.05290
2809.30602,0.05230
2807.24641,0.05192
2805.18680,0.05156
2803.12719,0.05112
2801.06758,0.05091
2799.00798,0.05067
2796.94837,0.05009
2794.88876,0.04944
2792.82915,0.04905
2790.76954,0.04890
2788.70993,0.04876
2786.65032,0.04848
2784.59072,0.04805
2782.53111,0.04777
2780.47150,0.04769
2778.41189,0.04752
2776.35228,0.04736
2774.29267,0.04736
2772.23307,0.04715
2770.17346,0.04666
2768.11385,0.04619
2766.05424,0.04585
2763.99463,0.04549
2761.93502,0.04519
2759.87541,0.04526
2757.81581,0.04549
2755.75620,0.04529
2753.69659,0.04464
2751.63698,0.04418
2749.57737,0.04414
2747.51776,0.04415
2745.45815,0.04390
2743.39855,0.04337
2741.33894,0.04277
2739.27933,0.04235
2737.21972,0.04204
2735.16011,0.04179
2733.10050,0.04171
2731.04089,0.04160
2728.98129,0.04141
2726.92168,0.04136
2724.86207,0.04125
2722.80246,0.04095
2720.74285,0.04063
2718.68324,0.04036
2716.62364,0.04009
2714.56403,0.03969
2712.50442,0.03931
2710.44481,0.03912
2708.38520,0.03905
2706.32559,0.03902
2704.26598,0.03897
2702.20638,0.03862
2700.14677,0.03800
2698.08716,0.03770
2696.02755,0.03773
2693.96794,0.03773
2691.90833,0.03759
2689.84872,0.03724
2687.78912,0.03686
2685.72951,0.03673
2683.66990,0.03673
2681.61029,0.03669
2679.55068,0.03654
2677.49107,0.03645
2675.43146,0.03647
2673.37186,0.03637
2671.31225,0.03619
2669.25264,0.03610
2667.19303,0.03598
2665.13342,0.03573
2663.07381,0.03539
2661.01421,0.03510
2658.95460,0.03496
2656.89499,0.03479
2654.83538,0.03453
2652.77577,0.03419
2650.71616,0.03354
2648.65655,0.03300
2646.59695,0.03290
2644.53734,0.03293
2642.47773,0.03303
2640.41812,0.03307
2638.35851,0.03263
2636.29890,0.03187
2634.23929,0.03137
2632.17969,0.03125
2630.12008,0.03110
2628.06047,0.03097
2626.00086,0.03096
2623.94125,0.03069
2621.88164,0.03026
2619.82203,0.03006
2617.76243,0.03000
2615.70282,0.02980
2613.64321,0.02949
2611.58360,0.02933
2609.52399,0.02923
2607.46438,0.02894
2605.40478,0.02862
2603.34517,0.02838
2601.28556,0.02811
2599.22595,0.02793
2597.16634,0.02792
2595.10673,0.02778
2593.04712,0.02740
2590.98752,0.02707
2588.92791,0.02686
2586.86830,0.02663
2584.80869,0.02619
2582.74908,0.02576
2580.68947,0.02574
2578.62986,0.02609
2576.57026,0.02646
2574.51065,0.02645
2572.45104,0.02608
2570.39143,0.02555
2568.33182,0.02494
2566.27221,0.02470
2564.21260,0.02501
2562.15300,0.02515
2560.09339,0.02501
2558.03378,0.02494
2555.97417,0.02482
2553.91456,0.02470
2551.85495,0.02454
2549.79535,0.02405
2547.73574,0.02346
2545.67613,0.02337
2543.61652,0.02373
2541.55691,0.02392
2539.49730,0.02391
2537.43769,0.02376
2535.37809,0.02344
2533.31848,0.02341
2531.25887,0.02365
2529.19926,0.02335
2527.13965,0.02266
2525.08004,0.02248
2523.02043,0.02294
2520.96083,0.02315
2518.90122,0.02258
2516.84161,0.02186
2514.78200,0.02159
2512.72239,0.02168
2510.66278,0.02180
2508.60317,0.02175
2506.54357,0.02165
2504.48396,0.02193
2502.42435,0.02244
2500.36474,0.02263
2498.30513,0.02239
2496.24552,0.02196
2494.18592,0.02174
2492.12631,0.02170
2490.06670,0.02164
2488.00709,0.02155
2485.94748,0.02134
2483.88787,0.02122
2481.82826,0.02125
2479.76866,0.02116
2477.70905,0.02119
2475.64944,0.02137
2473.58983,0.02125
2471.53022,0.02082
2469.47061,0.02057
2467.41100,0.02057
2465.35140,0.02042
2463.29179,0.02021
2461.23218,0.02019
2459.17257,0.02026
2457.11296,0.02028
2455.05335,0.02029
2452.99374,0.02024
2450.93414,0.02005
2448.87453,0.01996
2446.81492,0.01987
2444.75531,0.01967
2442.69570,0.01955
2440.63609,0.01932
2438.57649,0.01913
2436.51688,0.01933
2434.45727,0.01957
2432.39766,0.01947
2430.33805,0.01910
2428.27844,0.01864
2426.21883,0.01833
2424.15923,0.01810
2422.09962,0.01783
2420.04001,0.01787
2417.98040,0.01830
2415.92079,0.01861
2413.86118,0.01848
2411.80157,0.01804
2409.74197,0.01779
2407.68236,0.01789
2405.62275,0.01809
2403.56314,0.01823
2401.50353,0.01809
2399.44392,0.01761
2397.38431,0.01745
2395.32471,0.01770
2393.26510,0.01797
2391.20549,0.01811
2389.14588,0.01818
2387.08627,0.01812
2385.02666,0.01797
2382.96706,0.01798
2380.90745,0.01799
2378.84784,0.01771
2376.78823,0.01736
2374.72862,0.01719
2372.66901,0.01703
2370.60940,0.01696
2368.54980,0.01712
2366.49019,0.01714
2364.43058,0.01673
2362.37097,0.01635
2360.31136,0.01614
2358.25175,0.01582
2356.19214,0.01565
2354.13254,0.01605
2352.07293,0.01699
2350.01332,0.01765
2347.95371,0.01712
2345.89410,0.01577
2343.83449,0.01493
2341.77488,0.01501
2339.71528,0.01563
2337.65567,0.01620
2335.59606,0.01626
2333.53645,0.01619
2331.47684,0.01636
2329.41723,0.01671
2327.35763,0.01706
2325.29802,0.01688
2323.23841,0.01611
2321.17880,0.01550
2319.11919,0.01523
2317.05958,0.01499
2314.99997,0.01483
2312.94037,0.01488
2310.88076,0.01494
2308.82115,0.01491
2306.76154,0.01499
2304.70193,0.01509
2302.64232,0.01485
2300.58271,0.01449
2298.52311,0.01435
2296.46350,0.01412
2294.40389,0.01367
2292.34428,0.01340
2290.28467,0.01337
2288.22506,0.01339
2286.16545,0.01338
2284.10585,0.01329
2282.04624,0.01300
2279.98663,0.01253
2277.92702,0.01206
2275.86741,0.01185
2273.80780,0.01183
2271.74820,0.01184
2269.68859,0.01180
2267.62898,0.01151
2265.56937,0.01117
2263.50976,0.01124
2261.45015,0.01134
2259.39054,0.01116
2257.33094,0.01116
2255.27133,0.01126
2253.21172,0.01112
2251.15211,0.01097
2249.09250,0.01091
2247.03289,0.01077
2244.97328,0.01037
2242.91368,0.01022
2240.85407,0.01027
2238.79446,0.00999
2236.73485,0.00947
2234.67524,0.00891
2232.61563,0.00831
2230.55602,0.00783
2228.49642,0.00781
2226.43681,0.00813
2224.37720,0.00826
2222.31759,0.00826
2220.25798,0.00838
2218.19837,0.00832
2216.13877,0.00805
2214.07916,0.00780
2212.01955,0.00747
2209.95994,0.00680
2207.90033,0.00580
2205.84072,0.00506
2203.78111,0.00518
2201.72151,0.00599
2199.66190,0.00656
2197.60229,0.00653
2195.54268,0.00655
2193.48307,0.00652
2191.42346,0.00545
2189.36385,0.00413
2187.30425,0.00400
2185.24464,0.00482
2183.18503,0.00521
2181.12542,0.00460
2179.06581,0.00430
2177.00620,0.00471
2174.94659,0.00494
2172.88699,0.00494
2170.82738,0.00506
2168.76777,0.00552
2166.70816,0.00541
2164.64855,0.00418
2162.58894,0.00329
2160.52934,0.00369
2158.46973,0.00414
2156.41012,0.00342
2154.35051,0.00285
2152.29090,0.00405
2150.23129,0.00578
2148.17168,0.00636
2146.11208,0.00638
2144.05247,0.00628
2141.99286,0.00628
2139.93325,0.00688
2137.87364,0.00710
2135.81403,0.00677
2133.75442,0.00693
2131.69482,0.00717
2129.63521,0.00701
2127.57560,0.00726
2125.51599,0.00810
2123.45638,0.00843
2121.39677,0.00790
2119.33716,0.00759
2117.27756,0.00800
2115.21795,0.00851
2113.15834,0.00860
2111.09873,0.00839
2109.03912,0.00835
2106.97951,0.00843
2104.91991,0.00827
2102.86030,0.00809
2100.80069,0.00797
2098.74108,0.00811
2096.68147,0.00827
2094.62186,0.00778
2092.56225,0.00748
2090.50265,0.00852
2088.44304,0.00928
2086.38343,0.00839
2084.32382,0.00699
2082.26421,0.00596
2080.20460,0.00546
2078.14499,0.00553
2076.08539,0.00567
2074.02578,0.00571
2071.96617,0.00581
2069.90656,0.00585
2067.84695,0.00582
2065.78734,0.00571
2063.72773,0.00546
2061.66813,0.00514
2059.60852,0.00484
2057.54891,0.00469
2055.48930,0.00457
2053.42969,0.00418
2051.37008,0.00384
2049.31048,0.00392
2047.25087,0.00396
2045.19126,0.00410
2043.13165,0.00496
2041.07204,0.00546
2039.01243,0.00500
2036.95282,0.00418
2034.89322,0.00303
2032.83361,0.00214
2030.77400,0.00142
2028.71439,0.00071
2026.65478,0.00078
2024.59517,0.00101
2022.53556,0.00104
2020.47596,0.00131
2018.41635,0.00153
2016.35674,0.00191
2014.29713,0.00249
2012.23752,0.00219
2010.17791,0.00131
2008.11830,0.00069
2006.05870,0.00030
2003.99909,0.00084
2001.93948,0.00228
1999.87987,0.00308
1997.82026,0.00287
1995.76065,0.00264
1993.70105,0.00264
1991.64144,0.00249
1989.58183,0.00193
1987.52222,0.00105
1985.46261,0.00086
1983.40300,0.00167
1981.34339,0.00191
1979.28379,0.00112
1977.22418,0.00058
1975.16457,0.00046
1973.10496,0.00053
1971.04535,0.00070
1968.98574,0.00043
1966.92613,0.00027
1964.86653,0.00107
1962.80692,0.00208
1960.74731,0.00234
1958.68770,0.00259
1956.62809,0.00318
1954.56848,0.00325
1952.50887,0.00273
1950.44927,0.00229
1948.38966,0.00253
1946.33005,0.00332
1944.27044,0.00393
1942.21083,0.00406
1940.15122,0.00414
1938.09162,0.00449
1936.03201,0.00467
1933.97240,0.00420
1931.91279,0.00370
1929.85318,0.00363
1927.79357,0.00351
1925.73396,0.00319
1923.67436,0.00297
1921.61475,0.00313
1919.55514,0.00366
1917.49553,0.00427
1915.43592,0.00441
1913.37631,0.00385
1911.31670,0.00334
1909.25710,0.00352
1907.19749,0.00390
1905.13788,0.00384
1903.07827,0.00348
1901.01866,0.00325
1898.95905,0.00337
1896.89944,0.00363
1894.83984,0.00375
1892.78023,0.00373
1890.72062,0.00357
1888.66101,0.00339
1886.60140,0.00352
1884.54179,0.00383
1882.48219,0.00392
1880.42258,0.00386
1878.36297,0.00373
1876.30336,0.00349
1874.24375,0.00325
1872.18414,0.00302
1870.12453,0.00270
1868.06493,0.00252
1866.00532,0.00270
1863.94571,0.00304
1861.88610,0.00334
1859.82649,0.00347
1857.76688,0.00339
1855.70727,0.00326
1853.64767,0.00317
1851.58806,0.00296
1849.52845,0.00266
1847.46884,0.00255
1845.40923,0.00270
1843.34962,0.00276
1841.29002,0.00235
1839.23041,0.00190
1837.17080,0.00189
1835.11119,0.00203
1833.05158,0.00205
1830.99197,0.00208
1828.93236,0.00209
1826.87276,0.00198
1824.81315,0.00181
1822.75354,0.00170
1820.69393,0.00177
1818.63432,0.00183
1816.57471,0.00167
1814.51510,0.00156
1812.45550,0.00162
1810.39589,0.00159
1808.33628,0.00137
1806.27667,0.00123
1804.21706,0.00137
1802.15745,0.00163
1800.09784,0.00164
1798.03824,0.00143
1795.97863,0.00126
1793.91902,0.00118
1791.85941,0.00112
1789.79980,0.00103
1787.74019,0.00085
1785.68059,0.00065
1783.62098,0.00056
1781.56137,0.00059
1779.50176,0.00053
1777.44215,0.00035
1775.38254,0.00023
1773.32293,0.00027
1771.26333,0.00036
1769.20372,0.00035
1767.14411,0.00030
1765.08450,0.00042
1763.02489,0.00080
1760.96528,0.00138
1758.90567,0.00225
1756.84607,0.00349
1754.78646,0.00499
1752.72685,0.00668
1750.66724,0.00861
1748.60763,0.01025
1746.54802,0.01110
1744.48841,0.01119
1742.42881,0.01068
1740.36920,0.00964
1738.30959,0.00822
1736.24998,0.00668
1734.19037,0.00511
1732.13076,0.00367
1730.07116,0.00253
1728.01155,0.00172
1725.95194,0.00123
1723.89233,0.00101
1721.83272,0.00101
1719.77311,0.00126
1717.71350,0.00186
1715.65390,0.00282
1713.59429,0.00401
1711.53468,0.00561
1709.47507,0.00807
1707.41546,0.01183
1705.35585,0.01700
1703.29624,0.02352
1701.23664,0.03261
1699.17703,0.04367
1697.11742,0.05278
1695.05781,0.05898
1692.99820,0.06323
1690.93859,0.06682
1688.87898,0.07086
1686.81938,0.07576
1684.75977,0.08239
1682.70016,0.08964
1680.64055,0.09530
1678.58094,0.10027
1676.52133,0.10624
1674.46173,0.11330
1672.40212,0.12033
1670.34251,0.12761
1668.28290,0.13524
1666.22329,0.14194
1664.16368,0.14836
1662.10407,0.15547
1660.04447,0.16217
1657.98486,0.16756
1655.92525,0.17252
1653.86564,0.17884
1651.80603,0.18516
1649.74642,0.18853
1647.68681,0.19115
1645.62721,0.19479
1643.56760,0.19800
1641.50799,0.20031
1639.44838,0.20262
1637.38877,0.20606
1635.32916,0.21109
1633.26955,0.21590
1631.20995,0.21972
1629.15034,0.22399
1627.09073,0.22906
1625.03112,0.23410
1622.97151,0.23847
1620.91190,0.24097
1618.85230,0.24083
1616.79269,0.23779
1614.73308,0.23123
1612.67347,0.22124
1610.61386,0.20820
1608.55425,0.19305
1606.49464,0.17756
1604.43504,0.16322
1602.37543,0.15040
1600.31582,0.13922
1598.25621,0.12983
1596.19660,0.12206
1594.13699,0.11549
1592.07738,0.10995
1590.01778,0.10538
1587.95817,0.10169
1585.89856,0.09877
1583.83895,0.09668
1581.77934,0.09531
1579.71973,0.09452
1577.66012,0.09440
1575.60052,0.09513
1573.54091,0.09640
1571.48130,0.09819
1569.42169,0.10086
1567.36208,0.10404
1565.30247,0.10731
1563.24287,0.11068
1561.18326,0.11491
1559.12365,0.12123
1557.06404,0.12799
1555.00443,0.13324
1552.94482,0.13823
1550.88521,0.14362
1548.82561,0.14894
1546.76600,0.15373
1544.70639,0.15835
1542.64678,0.16345
1540.58717,0.16930
1538.52756,0.17453
1536.46795,0.17774
1534.40835,0.18045
1532.34874,0.18364
1530.28913,0.18648
1528.22952,0.18903
1526.16991,0.19174
1524.11030,0.19449
1522.05069,0.19756
1519.99109,0.20086
1517.93148,0.20368
1515.87187,0.20550
1513.81226,0.20562
1511.75265,0.20394
1509.69304,0.20104
1507.63344,0.19691
1505.57383,0.19135
1503.51422,0.18522
1501.45461,0.17901
1499.39500,0.17232
1497.33539,0.16470
1495.27578,0.15641
1493.21618,0.14817
1491.15657,0.13965
1489.09696,0.13048
1487.03735,0.12169
1484.97774,0.11410
1482.91813,0.10764
1480.85852,0.10217
1478.79892,0.09787
1476.73931,0.09493
1474.67970,0.09339
1472.62009,0.09317
1470.56048,0.09362
1468.50087,0.09400
1466.44126,0.09420
1464.38166,0.09433
1462.32205,0.09445
1460.26244,0.09507
1458.20283,0.09695
1456.14322,0.09961
1454.08361,0.10121
1452.02401,0.10142
1449.96440,0.10099
1447.90479,0.10014
1445.84518,0.09870
1443.78557,0.09661
1441.72596,0.09406
1439.66635,0.09144
1437.60675,0.08877
1435.54714,0.08586
1433.48753,0.08291
1431.42792,0.08024
1429.36831,0.07808
1427.30870,0.07665
1425.24909,0.07590
1423.18949,0.07562
1421.12988,0.07576
1419.07027,0.07648
1417.01066,0.07749
1414.95105,0.07841
1412.89144,0.07926
1410.83183,0.08012
1408.77223,0.08097
1406.71262,0.08183
1404.65301,0.08270
1402.59340,0.08340
1400.53379,0.08385
1398.47418,0.08413
1396.41458,0.08425
1394.35497,0.08416
1392.29536,0.08392
1390.23575,0.08368
1388.17614,0.08350
1386.11653,0.08313
1384.05692,0.08231
1381.99732,0.08113
1379.93771,0.07987
1377.87810,0.07868
1375.81849,0.07753
1373.75888,0.07639
1371.69927,0.07528
1369.63966,0.07410
1367.58006,0.07259
1365.52045,0.07077
1363.46084,0.06890
1361.40123,0.06715
1359.34162,0.06567
1357.28201,0.06460
1355.22240,0.06396
1353.16280,0.06363
1351.10319,0.06339
1349.04358,0.06314
1346.98397,0.06286
1344.92436,0.06244
1342.86475,0.06193
1340.80515,0.06156
1338.74554,0.06126
1336.68593,0.06083
1334.62632,0.06039
1332.56671,0.05996
1330.50710,0.05951
1328.44749,0.05912
1326.38789,0.05884
1324.32828,0.05873
1322.26867,0.05876
1320.20906,0.05886
1318.14945,0.05906
1316.08984,0.05923
1314.03023,0.05922
1311.97063,0.05912
1309.91102,0.05899
1307.85141,0.05882
1305.79180,0.05860
1303.73219,0.05837
1301.67258,0.05806
1299.61297,0.05763
1297.55337,0.05714
1295.49376,0.05677
1293.43415,0.05655
1291.37454,0.05641
1289.31493,0.05636
1287.25532,0.05639
1285.19572,0.05640
1283.13611,0.05635
1281.07650,0.05620
1279.01689,0.05599
1276.95728,0.05577
1274.89767,0.05558
1272.83806,0.05552
1270.77846,0.05570
1268.71885,0.05600
1266.65924,0.05635
1264.59963,0.05692
1262.54002,0.05789
1260.48041,0.05928
1258.42080,0.06097
1256.36120,0.06274
1254.30159,0.06432
1252.24198,0.06556
1250.18237,0.06664
1248.12276,0.06773
1246.06315,0.06876
1244.00354,0.06958
1241.94394,0.07014
1239.88433,0.07050
1237.82472,0.07082
1235.76511,0.07105
1233.70550,0.07112
1231.64589,0.07106
1229.58629,0.07080
1227.52668,0.07031
1225.46707,0.06960
1223.40746,0.06868
1221.34785,0.06758
1219.28824,0.06627
1217.22863,0.06472
1215.16903,0.06305
1213.10942,0.06129
1211.04981,0.05944
1208.99020,0.05757
1206.93059,0.05568
1204.87098,0.05380
1202.81137,0.05203
1200.75177,0.05035
1198.69216,0.04874
1196.63255,0.04726
1194.57294,0.04607
1192.51333,0.04508
1190.45372,0.04416
1188.39411,0.04337
1186.33451,0.04277
1184.27490,0.04232
1182.21529,0.04203
1180.15568,0.04204
1178.09607,0.04244
1176.03646,0.04329
1173.97686,0.04441
1171.91725,0.04546
1169.85764,0.04624
1167.79803,0.04683
1165.73842,0.04733
1163.67881,0.04762
1161.61920,0.04760
1159.55960,0.04738
1157.49999,0.04706
1155.44038,0.04666
1153.38077,0.04609
1151.32116,0.04532
1149.26155,0.04441
1147.20194,0.04340
1145.14234,0.04240
1143.08273,0.04149
1141.02312,0.04064
1138.96351,0.03976
1136.90390,0.03884
1134.84429,0.03795
1132.78468,0.03719
1130.72508,0.03663
1128.66547,0.03628
1126.60586,0.03601
1124.54625,0.03568
1122.48664,0.03528
1120.42703,0.03497
1118.36743,0.03482
1116.30782,0.03467
1114.24821,0.03442
1112.18860,0.03417
1110.12899,0.03411
1108.06938,0.03427
1106.00977,0.03456
1103.95017,0.03488
1101.89056,0.03518
1099.83095,0.03549
1097.77134,0.03581
1095.71173,0.03623
1093.65212,0.03686
1091.59251,0.03778
1089.53291,0.03894
1087.47330,0.04031
1085.41369,0.04194
1083.35408,0.04377
1081.29447,0.04557
1079.23486,0.04723
1077.17525,0.04880
1075.11565,0.05026
1073.05604,0.05148
1070.99643,0.05234
1068.93682,0.05296
1066.87721,0.05342
1064.81760,0.05361
1062.75800,0.05349
1060.69839,0.05318
1058.63878,0.05281
1056.57917,0.05252
1054.51956,0.05240
1052.45995,0.05222
1050.40034,0.05180
1048.34074,0.05116
1046.28113,0.05028
1044.22152,0.04922
1042.16191,0.04795
1040.10230,0.04638
1038.04269,0.04466
1035.98308,0.04298
1033.92348,0.04128
1031.86387,0.03955
1029.80426,0.03784
1027.74465,0.03613
1025.68504,0.03431
1023.62543,0.03241
1021.56582,0.03049
1019.50622,0.02867
1017.44661,0.02718
1015.38700,0.02595
1013.32739,0.02474
1011.26778,0.02357
1009.20817,0.02254
1007.14857,0.02169
1005.08896,0.02087
1003.02935,0.02006
1000.96974,0.01930
998.91013,0.01859
996.85052,0.01795
994.79091,0.01732
992.73131,0.01671
990.67170,0.01608
988.61209,0.01547
986.55248,0.01497
984.49287,0.01458
982.43326,0.01416
980.37365,0.01382
978.31405,0.01366
976.25444,0.01358
974.19483,0.01351
972.13522,0.01346
970.07561,0.01342
968.01600,0.01350
965.95639,0.01371
963.89679,0.01388
961.83718,0.01383
959.77757,0.01354
957.71796,0.01321
955.65835,0.01289
953.59874,0.01248
951.53914,0.01210
949.47953,0.01188
947.41992,0.01177
945.36031,0.01163
943.30070,0.01145
941.24109,0.01137
939.18148,0.01150
937.12188,0.01160
935.06227,0.01152
933.00266,0.01138
930.94305,0.01121
928.88344,0.01088
926.82383,0.01045
924.76422,0.01003
922.70462,0.00962
920.64501,0.00922
918.58540,0.00891
916.52579,0.00868
914.46618,0.00846
912.40657,0.00825
910.34696,0.00818
908.28736,0.00832
906.22775,0.00844
904.16814,0.00843
902.10853,0.00838
900.04892,0.00838
897.98931,0.00839
895.92971,0.00826
893.87010,0.00801
891.81049,0.00774
889.75088,0.00750
887.69127,0.00728
885.63166,0.00684
883.57205,0.00580
881.51245,0.00432
879.45284,0.00298
877.39323,0.00200
875.33362,0.00116
873.27401,0.00042
871.21440,0.00008
869.15479,0.00014
867.09519,0.00036
865.03558,0.00064
862.97597,0.00095
860.91636,0.00116
858.85675,0.00128
856.79714,0.00152
854.73753,0.00206
852.67793,0.00253
850.61832,0.00257
848.55871,0.00245
846.49910,0.00249
844.43949,0.00268
842.37988,0.00286
840.32028,0.00300
838.26067,0.00313
836.20106,0.00336
834.14145,0.00368
832.08184,0.00406
830.02223,0.00442
827.96262,0.00466
825.90302,0.00475
823.84341,0.00480
821.78380,0.00495
819.72419,0.00512
817.66458,0.00522
815.60497,0.00534
813.54536,0.00556
811.48576,0.00573
809.42615,0.00578
807.36654,0.00586
805.30693,0.00600
803.24732,0.00618
801.18771,0.00634
799.12810,0.00637
797.06850,0.00641
795.00889,0.00657
792.94928,0.00685
790.88967,0.00725
788.83006,0.00767
786.77045,0.00811
784.71085,0.00867
782.65124,0.00930
780.59163,0.00985
778.53202,0.01031
776.47241,0.01069
774.41280,0.01096
772.35319,0.01114
770.29359,0.01131
768.23398,0.01149
766.17437,0.01155
764.11476,0.01148
762.05515,0.01149
759.99554,0.01172
757.93593,0.01219
755.87633,0.01276
753.81672,0.01318
751.75711,0.01356
749.69750,0.01417
747.63789,0.01484
745.57828,0.01534
743.51867,0.01567
741.45907,0.01595
739.39946,0.01632
737.33985,0.01670
735.28024,0.01692
733.22063,0.01710
731.16102,0.01751
729.10142,0.01820
727.04181,0.01909
724.98220,0.02011
722.92259,0.02124
720.86298,0.02246
718.80337,0.02373
716.74376,0.02500
714.68416,0.02611
712.62455,0.02708
710.56494,0.02827
708.50533,0.02984
706.44572,0.03149
704.38611,0.03284
702.32650,0.03399
700.26690,0.03506
698.20729,0.03571
696.14768,0.03565
694.08807,0.03519
692.02846,0.03486
689.96885,0.03474
687.90924,0.03452
685.84964,0.03410
683.79003,0.03382
681.73042,0.03387
679.67081,0.03407
677.61120,0.03420
675.55159,0.03415
673.49199,0.03390
671.43238,0.03346
669.37277,0.03294
667.31316,0.03279
665.25355,0.03307
663.19394,0.03330
661.13433,0.03316
659.07473,0.03287
657.01512,0.03274
654.95551,0.03280
652.89590,0.03299
650.83629,0.03313
648.77668,0.03314
646.71707,0.03320
644.65747,0.03348
642.59786,0.03383
640.53825,0.03393
638.47864,0.03378
636.41903,0.03370
634.35942,0.03376
632.29981,0.03388
630.24021,0.03403
628.18060,0.03418
626.12099,0.03430
624.06138,0.03433
622.00177,0.03424
619.94216,0.03409
617.88256,0.03393
615.82295,0.03369
613.76334,0.03333
611.70373,0.03296
609.64412,0.03257
607.58451,0.03206
605.52490,0.03158
603.46530,0.03129
601.40569,0.03111
599.34608,0.03092
597.28647,0.03072
595.22686,0.03058
593.16725,0.03043
591.10764,0.03029
589.04804,0.03035
586.98843,0.03039
584.92882,0.03020
582.86921,0.03003
580.80960,0.03007
578.74999,0.03013
576.69039,0.03010
574.63078,0.03001
572.57117,0.02973
570.51156,0.02939
568.45195,0.02926
566.39234,0.02920
564.33273,0.02897
562.27313,0.02873
560.21352,0.02867
558.15391,0.02872
556.09430,0.02875
554.03469,0.02867
551.97508,0.02841
549.91547,0.02805
547.85587,0.02763
545.79626,0.02711
543.73665,0.02674
541.67704,0.02674
539.61743,0.02681
537.55782,0.02670
535.49821,0.02660
533.43861,0.02639
531.37900,0.02584
529.31939,0.02536
527.25978,0.02534
525.20017,0.02540
523.14056,0.02517
521.08096,0.02481
519.02135,0.02440
516.96174,0.02408
514.90213,0.02389
512.84252,0.02359
510.78291,0.02328
508.72330,0.02311
506.66370,0.02289
504.60409,0.02241
502.54448,0.02181
500.48487,0.02134
498.42526,0.02104
496.36565,0.02081
494.30604,0.02053
492.24644,0.02011
490.18683,0.01954
488.12722,0.01905
486.06761,0.01879
484.00800,0.01856
481.94839,0.01823
479.88878,0.01768
477.82918,0.01686
475.76957,0.01606
473.70996,0.01558
471.65035,0.01519
469.59074,0.01477
467.53113,0.01460
465.47153,0.01462
463.41192,0.01453
461.35231,0.01438
459.29270,0.01422
457.23309,0.01409
455.17348,0.01394
453.11387,0.01353
451.05427,0.01301
448.99466,0.01275
446.93505,0.01248
444.87544,0.01165
442.81583,0.01067
440.75622,0.01040
438.69661,0.01054
436.63701,0.01021
434.57740,0.00924
432.51779,0.00820
430.45818,0.00772
428.39857,0.00753
426.33896,0.00697
424.27935,0.00607
422.21975,0.00519
420.16014,0.00437
418.10053,0.00361
416.04092,0.00322
413.98131,0.00300
411.92170,0.00246
409.86210,0.00174
407.80249,0.00134
405.74288,0.00110
403.68327,0.00057
401.62366,0.00008
399.56405,0.00000
