2996.73039,0.05724
2994.67079,0.05618
2992.61118,0.05513
2990.55157,0.05408
2988.49196,0.05309
2986.43235,0.05213
2984.37274,0.05117
2982.31313,0.05028
2980.25353,0.04942
2978.19392,0.04856
2976.13431,0.04772
2974.07470,0.04689
2972.01509,0.04611
2969.95548,0.04535
2967.89587,0.04455
2965.83627,0.04380
2963.77666,0.04312
2961.71705,0.04241
2959.65744,0.04166
2957.59783,0.04093
2955.53822,0.04016
2953.47861,0.03931
2951.41901,0.03843
2949.35940,0.03762
2947.29979,0.03691
2945.24018,0.03621
2943.18057,0.03556
2941.12096,0.03498
2939.06136,0.03440
2937.00175,0.03382
2934.94214,0.03325
2932.88253,0.03270
2930.82292,0.03219
2928.76331,0.03167
2926.70370,0.03111
2924.64410,0.03051
2922.58449,0.02982
2920.52488,0.02910
2918.46527,0.02854
2916.40566,0.02808
2914.34605,0.02752
2912.28644,0.02687
2910.22684,0.02630
2908.16723,0.02586
2906.10762,0.02544
2904.04801,0.02496
2901.98840,0.02445
2899.92879,0.02395
2897.86918,0.02349
2895.80958,0.02306
2893.74997,0.02264
2891.69036,0.02222
2889.63075,0.02181
2887.57114,0.02143
2885.51153,0.02110
2883.45193,0.02078
2881.39232,0.02045
2879.33271,0.02013
2877.27310,0.01979
2875.21349,0.01946
2873.15388,0.01916
2871.09427,0.01884
2869.03467,0.01851
2866.97506,0.01822
2864.91545,0.01793
2862.85584,0.01759
2860.79623,0.01728
2858.73662,0.01702
2856.67701,0.01676
2854.61741,0.01652
2852.55780,0.01626
2850.49819,0.01593
2848.43858,0.01564
2846.37897,0.01538
2844.31936,0.01510
2842.25975,0.01483
2840.20015,0.01456
2838.14054,0.01426
2836.08093,0.01398
2834.02132,0.01378
2831.96171,0.01366
2829.90210,0.01353
2827.84250,0.01334
2825.78289,0.01311
2823.72328,0.01284
2821.66367,0.01260
2819.60406,0.01246
2817.54445,0.01233
2815.48484,0.01215
2813.42524,0.01196
2811.36563,0.01181
2809.30602,0.01169
2807.24641,0.01154
2805.18680,0.01135
2803.12719,0.01119
2801.06758,0.01103
2799.00798,0.01087
2796.94837,0.01073
2794.88876,0.01051
2792.82915,0.01029
2790.76954,0.01015
2788.70993,0.01004
2786.65032,0.00991
2784.59072,0.00976
2782.53111,0.00963
2780.47150,0.00953
2778.41189,0.00947
2776.35228,0.00945
2774.29267,0.00939
2772.23307,0.00924
2770.17346,0.00907
2768.11385,0.00892
2766.05424,0.00886
2763.99463,0.00881
2761.93502,0.00869
2759.87541,0.00857
2757.81581,0.00848
2755.75620,0.00840
2753.69659,0.00830
2751.63698,0.00822
2749.57737,0.00815
2747.51776,0.00804
2745.45815,0.00790
2743.39855,0.00781
2741.33894,0.00777
2739.27933,0.00764
2737.21972,0.00752
2735.16011,0.00754
2733.10050,0.00758
2731.04089,0.00752
2728.98129,0.00742
2726.92168,0.00737
2724.86207,0.00734
2722.80246,0.00730
2720.74285,0.00723
2718.68324,0.00716
2716.62364,0.00706
2714.56403,0.00695
2712.50442,0.00687
2710.44481,0.00683
2708.38520,0.00678
2706.32559,0.00670
2704.26598,0.00663
2702.20638,0.00660
2700.14677,0.00660
2698.08716,0.00661
2696.02755,0.00658
2693.96794,0.00651
2691.90833,0.00645
2689.84872,0.00642
2687.78912,0.00639
2685.72951,0.00633
2683.66990,0.00631
2681.61029,0.00626
2679.55068,0.00619
2677.49107,0.00617
2675.43146,0.00619
2673.37186,0.00620
2671.31225,0.00614
2669.25264,0.00604
2667.19303,0.00598
2665.13342,0.00598
2663.07381,0.00597
2661.01421,0.00590
2658.95460,0.00587
2656.89499,0.00594
2654.83538,0.00603
2652.77577,0.00600
2650.71616,0.00594
2648.65655,0.00588
2646.59695,0.00582
2644.53734,0.00581
2642.47773,0.00587
2640.41812,0.00589
2638.35851,0.00586
2636.29890,0.00585
2634.23929,0.00584
2632.17969,0.00576
2630.12008,0.00570
2628.06047,0.00573
2626.00086,0.00573
2623.94125,0.00562
2621.88164,0.00550
2619.82203,0.00551
2617.76243,0.00559
2615.70282,0.00562
2613.64321,0.00559
2611.58360,0.00557
2609.52399,0.00558
2607.46438,0.00555
2605.40478,0.00540
2603.34517,0.00528
2601.28556,0.00533
2599.22595,0.00541
2597.16634,0.00546
2595.10673,0.00547
2593.04712,0.00545
2590.98752,0.00546
2588.92791,0.00554
2586.86830,0.00563
2584.80869,0.00558
2582.74908,0.00545
2580.68947,0.00536
2578.62986,0.00531
2576.57026,0.00528
2574.51065,0.00533
2572.45104,0.00547
2570.39143,0.00557
2568.33182,0.00561
2566.27221,0.00567
2564.21260,0.00579
2562.15300,0.00588
2560.09339,0.00585
2558.03378,0.00578
2555.97417,0.00574
2553.91456,0.00571
2551.85495,0.00569
2549.79535,0.00568
2547.73574,0.00568
2545.67613,0.00566
2543.61652,0.00565
2541.55691,0.00568
2539.49730,0.00575
2537.43769,0.00585
2535.37809,0.00598
2533.31848,0.00601
2531.25887,0.00594
2529.19926,0.00590
2527.13965,0.00591
2525.08004,0.00591
2523.02043,0.00580
2520.96083,0.00576
2518.90122,0.00600
2516.84161,0.00633
2514.78200,0.00646
2512.72239,0.00634
2510.66278,0.00615
2508.60317,0.00609
2506.54357,0.00615
2504.48396,0.00620
2502.42435,0.00629
2500.36474,0.00639
2498.30513,0.00651
2496.24552,0.00661
2494.18592,0.00655
2492.12631,0.00646
2490.06670,0.00654
2488.00709,0.00673
2485.94748,0.00682
2483.88787,0.00675
2481.82826,0.00668
2479.76866,0.00674
2477.70905,0.00676
2475.64944,0.00679
2473.58983,0.00692
2471.53022,0.00700
2469.47061,0.00703
2467.41100,0.00709
2465.35140,0.00711
2463.29179,0.00717
2461.23218,0.00727
2459.17257,0.00730
2457.11296,0.00725
2455.05335,0.00724
2452.99374,0.00734
2450.93414,0.00748
2448.87453,0.00756
2446.81492,0.00765
2444.75531,0.00776
2442.69570,0.00786
2440.63609,0.00794
2438.57649,0.00802
2436.51688,0.00805
2434.45727,0.00803
2432.39766,0.00809
2430.33805,0.00820
2428.27844,0.00821
2426.21883,0.00818
2424.15923,0.00825
2422.09962,0.00841
2420.04001,0.00852
2417.98040,0.00855
2415.92079,0.00854
2413.86118,0.00847
2411.80157,0.00842
2409.74197,0.00859
2407.68236,0.00883
2405.62275,0.00887
2403.56314,0.00879
2401.50353,0.00881
2399.44392,0.00895
2397.38431,0.00905
2395.32471,0.00909
2393.26510,0.00914
2391.20549,0.00923
2389.14588,0.00930
2387.08627,0.00932
2385.02666,0.00934
2382.96706,0.00945
2380.90745,0.00961
2378.84784,0.00971
2376.78823,0.00974
2374.72862,0.00972
2372.66901,0.00971
2370.60940,0.00976
2368.54980,0.00979
2366.49019,0.00971
2364.43058,0.00963
2362.37097,0.00976
2360.31136,0.01006
2358.25175,0.01041
2356.19214,0.01077
2354.13254,0.01089
2352.07293,0.01080
2350.01332,0.01079
2347.95371,0.01082
2345.89410,0.01090
2343.83449,0.01110
2341.77488,0.01125
2339.71528,0.01129
2337.65567,0.01136
2335.59606,0.01154
2333.53645,0.01171
2331.47684,0.01179
2329.41723,0.01180
2327.35763,0.01183
2325.29802,0.01182
2323.23841,0.01176
2321.17880,0.01173
2319.11919,0.01178
2317.05958,0.01188
2314.99997,0.01194
2312.94037,0.01191
2310.88076,0.01191
2308.82115,0.01197
2306.76154,0.01203
2304.70193,0.01211
2302.64232,0.01227
2300.58271,0.01242
2298.52311,0.01249
2296.46350,0.01252
2294.40389,0.01256
2292.34428,0.01259
2290.28467,0.01261
2288.22506,0.01273
2286.16545,0.01287
2284.10585,0.01278
2282.04624,0.01254
2279.98663,0.01249
2277.92702,0.01265
2275.86741,0.01278
2273.80780,0.01293
2271.74820,0.01309
2269.68859,0.01309
2267.62898,0.01301
2265.56937,0.01312
2263.50976,0.01337
2261.45015,0.01346
2259.39054,0.01340
2257.33094,0.01340
2255.27133,0.01349
2253.21172,0.01367
2251.15211,0.01385
2249.09250,0.01386
2247.03289,0.01386
2244.97328,0.01397
2242.91368,0.01397
2240.85407,0.01395
2238.79446,0.01405
2236.73485,0.01406
2234.67524,0.01403
2232.61563,0.01415
2230.55602,0.01420
2228.49642,0.01414
2226.43681,0.01427
2224.37720,0.01460
2222.31759,0.01475
2220.25798,0.01469
2218.19837,0.01481
2216.13877,0.01492
2214.07916,0.01469
2212.01955,0.01457
2209.95994,0.01479
2207.90033,0.01486
2205.84072,0.01469
2203.78111,0.01464
2201.72151,0.01478
2199.66190,0.01495
2197.60229,0.01509
2195.54268,0.01516
2193.48307,0.01512
2191.42346,0.01509
2189.36385,0.01515
2187.30425,0.01507
2185.24464,0.01496
2183.18503,0.01504
2181.12542,0.01497
2179.06581,0.01486
2177.00620,0.01516
2174.94659,0.01561
2172.88699,0.01577
2170.82738,0.01569
2168.76777,0.01552
2166.70816,0.01532
2164.64855,0.01515
2162.58894,0.01505
2160.52934,0.01504
2158.46973,0.01491
2156.41012,0.01497
2154.35051,0.01553
2152.29090,0.01617
2150.23129,0.01668
2148.17168,0.01696
2146.11208,0.01693
2144.05247,0.01694
2141.99286,0.01713
2139.93325,0.01738
2137.87364,0.01761
2135.81403,0.01786
2133.75442,0.01800
2131.69482,0.01799
2129.63521,0.01803
2127.57560,0.01818
2125.51599,0.01844
2123.45638,0.01871
2121.39677,0.01875
2119.33716,0.01880
2117.27756,0.01900
2115.21795,0.01899
2113.15834,0.01882
2111.09873,0.01877
2109.03912,0.01889
2106.97951,0.01902
2104.91991,0.01887
2102.86030,0.01849
2100.80069,0.01829
2098.74108,0.01839
2096.68147,0.01858
2094.62186,0.01871
2092.56225,0.01862
2090.50265,0.01842
2088.44304,0.01829
2086.38343,0.01805
2084.32382,0.01772
2082.26421,0.01769
2080.20460,0.01779
2078.14499,0.01771
2076.08539,0.01752
2074.02578,0.01730
2071.96617,0.01712
2069.90656,0.01704
2067.84695,0.01701
2065.78734,0.01699
2063.72773,0.01705
2061.66813,0.01710
2059.60852,0.01684
2057.54891,0.01647
2055.48930,0.01611
2053.42969,0.01578
2051.37008,0.01585
2049.31048,0.01599
2047.25087,0.01536
2045.19126,0.01437
2043.13165,0.01415
2041.07204,0.01439
2039.01243,0.01420
2036.95282,0.01391
2034.89322,0.01395
2032.83361,0.01390
2030.77400,0.01377
2028.71439,0.01392
2026.65478,0.01400
2024.59517,0.01337
2022.53556,0.01249
2020.47596,0.01235
2018.41635,0.01269
2016.35674,0.01281
2014.29713,0.01297
2012.23752,0.01319
2010.17791,0.01301
2008.11830,0.01252
2006.05870,0.01233
2003.99909,0.01244
2001.93948,0.01241
1999.87987,0.01240
1997.82026,0.01256
1995.76065,0.01283
1993.70105,0.01281
1991.64144,0.01237
1989.58183,0.01197
1987.52222,0.01182
1985.46261,0.01193
1983.40300,0.01206
1981.34339,0.01193
1979.28379,0.01165
1977.22418,0.01150
1975.16457,0.01150
1973.10496,0.01135
1971.04535,0.01114
1968.98574,0.01125
1966.92613,0.01147
1964.86653,0.01161
1962.80692,0.01168
1960.74731,0.01173
1958.68770,0.01182
1956.62809,0.01181
1954.56848,0.01168
1952.50887,0.01141
1950.44927,0.01112
1948.38966,0.01119
1946.33005,0.01149
1944.27044,0.01162
1942.21083,0.01159
1940.15122,0.01147
1938.09162,0.01135
1936.03201,0.01146
1933.97240,0.01170
1931.91279,0.01173
1929.85318,0.01158
1927.79357,0.01153
1925.73396,0.01153
1923.67436,0.01149
1921.61475,0.01143
1919.55514,0.01138
1917.49553,0.01148
1915.43592,0.01168
1913.37631,0.01182
1911.31670,0.01183
1909.25710,0.01168
1907.19749,0.01149
1905.13788,0.01143
1903.07827,0.01151
1901.01866,0.01157
1898.95905,0.01153
1896.89944,0.01160
1894.83984,0.01175
1892.78023,0.01183
1890.72062,0.01189
1888.66101,0.01186
1886.60140,0.01178
1884.54179,0.01178
1882.48219,0.01181
1880.42258,0.01182
1878.36297,0.01177
1876.30336,0.01175
1874.24375,0.01181
1872.18414,0.01193
1870.12453,0.01208
1868.06493,0.01223
1866.00532,0.01222
1863.94571,0.01200
1861.88610,0.01184
1859.82649,0.01193
1857.76688,0.01213
1855.70727,0.01230
1853.64767,0.01235
1851.58806,0.01228
1849.52845,0.01227
1847.46884,0.01239
1845.40923,0.01254
1843.34962,0.01269
1841.29002,0.01279
1839.23041,0.01285
1837.17080,0.01284
1835.11119,0.01277
1833.05158,0.01279
1830.99197,0.01299
1828.93236,0.01325
1826.87276,0.01339
1824.81315,0.01347
1822.75354,0.01359
1820.69393,0.01371
1818.63432,0.01383
1816.57471,0.01396
1814.51510,0.01412
1812.45550,0.01432
1810.39589,0.01450
1808.33628,0.01465
1806.27667,0.01477
1804.21706,0.01488
1802.15745,0.01508
1800.09784,0.01534
1798.03824,0.01547
1795.97863,0.01554
1793.91902,0.01570
1791.85941,0.01602
1789.79980,0.01633
1787.74019,0.01655
1785.68059,0.01681
1783.62098,0.01710
1781.56137,0.01735
1779.50176,0.01759
1777.44215,0.01785
1775.38254,0.01813
1773.32293,0.01849
1771.26333,0.01883
1769.20372,0.01912
1767.14411,0.01950
1765.08450,0.01993
1763.02489,0.02037
1760.96528,0.02084
1758.90567,0.02133
1756.84607,0.02191
1754.78646,0.02253
1752.72685,0.02306
1750.66724,0.02371
1748.60763,0.02443
1746.54802,0.02511
1744.48841,0.02581
1742.42881,0.02653
1740.36920,0.02726
1738.30959,0.02803
1736.24998,0.02885
1734.19037,0.02994
1732.13076,0.03124
1730.07116,0.03245
1728.01155,0.03373
1725.95194,0.03500
1723.89233,0.03629
1721.83272,0.03755
1719.77311,0.03887
1717.71350,0.04071
1715.65390,0.04288
1713.59429,0.04476
1711.53468,0.04659
1709.47507,0.04857
1707.41546,0.05073
1705.35585,0.05319
1703.29624,0.05550
1701.23664,0.05820
1699.17703,0.06176
1697.11742,0.06516
1695.05781,0.06887
1692.99820,0.07237
1690.93859,0.07558
1688.87898,0.07922
1686.81938,0.08283
1684.75977,0.08737
1682.70016,0.09277
1680.64055,0.09699
1678.58094,0.10076
1676.52133,0.10503
1674.46173,0.11000
1672.40212,0.11451
1670.34251,0.11918
1668.28290,0.12467
1666.22329,0.12938
1664.16368,0.13389
1662.10407,0.13922
1660.04447,0.14424
1657.98486,0.14835
1655.92525,0.15179
1653.86564,0.15622
1651.80603,0.16158
1649.74642,0.16438
1647.68681,0.16660
1645.62721,0.16950
1643.56760,0.17152
1641.50799,0.17259
1639.44838,0.17318
1637.38877,0.17334
1635.32916,0.17305
1633.26955,0.17191
1631.20995,0.17001
1629.15034,0.16742
1627.09073,0.16423
1625.03112,0.16068
1622.97151,0.15663
1620.91190,0.15237
1618.85230,0.14807
1616.79269,0.14292
1614.73308,0.13749
1612.67347,0.13265
1610.61386,0.12780
1608.55425,0.12284
1606.49464,0.11808
1604.43504,0.11357
1602.37543,0.10925
1600.31582,0.10521
1598.25621,0.10149
1596.19660,0.09798
1594.13699,0.09463
1592.07738,0.09157
1590.01778,0.08887
1587.95817,0.08643
1585.89856,0.08417
1583.83895,0.08205
1581.77934,0.08012
1579.71973,0.07844
1577.66012,0.07687
1575.60052,0.07527
1573.54091,0.07393
1571.48130,0.07282
1569.42169,0.07175
1567.36208,0.07084
1565.30247,0.07014
1563.24287,0.06957
1561.18326,0.06909
1559.12365,0.06881
1557.06404,0.06891
1555.00443,0.06906
1552.94482,0.06915
1550.88521,0.06919
1548.82561,0.06915
1546.76600,0.06902
1544.70639,0.06871
1542.64678,0.06817
1540.58717,0.06736
1538.52756,0.06632
1536.46795,0.06527
1534.40835,0.06406
1532.34874,0.06269
1530.28913,0.06144
1528.22952,0.06030
1526.16991,0.05923
1524.11030,0.05829
1522.05069,0.05739
1519.99109,0.05662
1517.93148,0.05601
1515.87187,0.05535
1513.81226,0.05456
1511.75265,0.05371
1509.69304,0.05284
1507.63344,0.05195
1505.57383,0.05118
1503.51422,0.05066
1501.45461,0.05015
1499.39500,0.04960
1497.33539,0.04911
1495.27578,0.04873
1493.21618,0.04838
1491.15657,0.04795
1489.09696,0.04758
1487.03735,0.04739
1484.97774,0.04724
1482.91813,0.04709
1480.85852,0.04698
1478.79892,0.04690
1476.73931,0.04680
1474.67970,0.04675
1472.62009,0.04682
1470.56048,0.04690
1468.50087,0.04687
1466.44126,0.04686
1464.38166,0.04697
1462.32205,0.04711
1460.26244,0.04715
1458.20283,0.04706
1456.14322,0.04698
1454.08361,0.04693
1452.02401,0.04681
1449.96440,0.04663
1447.90479,0.04650
1445.84518,0.04639
1443.78557,0.04623
1441.72596,0.04611
1439.66635,0.04604
1437.60675,0.04593
1435.54714,0.04580
1433.48753,0.04571
1431.42792,0.04561
1429.36831,0.04552
1427.30870,0.04547
1425.24909,0.04548
1423.18949,0.04555
1421.12988,0.04559
1419.07027,0.04564
1417.01066,0.04569
1414.95105,0.04564
1412.89144,0.04552
1410.83183,0.04543
1408.77223,0.04536
1406.71262,0.04531
1404.65301,0.04529
1402.59340,0.04526
1400.53379,0.04524
1398.47418,0.04523
1396.41458,0.04517
1394.35497,0.04511
1392.29536,0.04513
1390.23575,0.04514
1388.17614,0.04511
1386.11653,0.04503
1384.05692,0.04489
1381.99732,0.04469
1379.93771,0.04449
1377.87810,0.04432
1375.81849,0.04422
1373.75888,0.04419
1371.69927,0.04420
1369.63966,0.04419
1367.58006,0.04418
1365.52045,0.04415
1363.46084,0.04414
1361.40123,0.04413
1359.34162,0.04407
1357.28201,0.04404
1355.22240,0.04407
1353.16280,0.04409
1351.10319,0.04409
1349.04358,0.04412
1346.98397,0.04418
1344.92436,0.04425
1342.86475,0.04430
1340.80515,0.04441
1338.74554,0.04457
1336.68593,0.04461
1334.62632,0.04449
1332.56671,0.04438
1330.50710,0.04434
1328.44749,0.04433
1326.38789,0.04433
1324.32828,0.04438
1322.26867,0.04445
1320.20906,0.04448
1318.14945,0.04448
1316.08984,0.04450
1314.03023,0.04453
1311.97063,0.04457
1309.91102,0.04459
1307.85141,0.04460
1305.79180,0.04457
1303.73219,0.04454
1301.67258,0.04453
1299.61297,0.04453
1297.55337,0.04455
1295.49376,0.04457
1293.43415,0.04461
1291.37454,0.04464
1289.31493,0.04465
1287.25532,0.04468
1285.19572,0.04472
1283.13611,0.04474
1281.07650,0.04474
1279.01689,0.04474
1276.95728,0.04478
1274.89767,0.04484
1272.83806,0.04485
1270.77846,0.04485
1268.71885,0.04486
1266.65924,0.04485
1264.59963,0.04485
1262.54002,0.04490
1260.48041,0.04494
1258.42080,0.04492
1256.36120,0.04487
1254.30159,0.04486
1252.24198,0.04494
1250.18237,0.04498
1248.12276,0.04490
1246.06315,0.04479
1244.00354,0.04473
1241.94394,0.04466
1239.88433,0.04460
1237.82472,0.04458
1235.76511,0.04460
1233.70550,0.04455
1231.64589,0.04442
1229.58629,0.04425
1227.52668,0.04407
1225.46707,0.04390
1223.40746,0.04377
1221.34785,0.04366
1219.28824,0.04353
1217.22863,0.04344
1215.16903,0.04337
1213.10942,0.04334
1211.04981,0.04332
1208.99020,0.04329
1206.93059,0.04323
1204.87098,0.04319
1202.81137,0.04321
1200.75177,0.04326
1198.69216,0.04328
1196.63255,0.04324
1194.57294,0.04324
1192.51333,0.04323
1190.45372,0.04320
1188.39411,0.04320
1186.33451,0.04321
1184.27490,0.04321
1182.21529,0.04321
1180.15568,0.04322
1178.09607,0.04328
1176.03646,0.04333
1173.97686,0.04336
1171.91725,0.04334
1169.85764,0.04332
1167.79803,0.04336
1165.73842,0.04337
1163.67881,0.04330
1161.61920,0.04321
1159.55960,0.04317
1157.49999,0.04317
1155.44038,0.04322
1153.38077,0.04325
1151.32116,0.04319
1149.26155,0.04311
1147.20194,0.04308
1145.14234,0.04309
1143.08273,0.04311
1141.02312,0.04311
1138.96351,0.04317
1136.90390,0.04326
1134.84429,0.04325
1132.78468,0.04323
1130.72508,0.04335
1128.66547,0.04350
1126.60586,0.04358
1124.54625,0.04356
1122.48664,0.04352
1120.42703,0.04356
1118.36743,0.04366
1116.30782,0.04372
1114.24821,0.04380
1112.18860,0.04394
1110.12899,0.04402
1108.06938,0.04399
1106.00977,0.04395
1103.95017,0.04394
1101.89056,0.04392
1099.83095,0.04388
1097.77134,0.04390
1095.71173,0.04399
1093.65212,0.04405
1091.59251,0.04411
1089.53291,0.04427
1087.47330,0.04436
1085.41369,0.04433
1083.35408,0.04436
1081.29447,0.04447
1079.23486,0.04457
1077.17525,0.04464
1075.11565,0.04471
1073.05604,0.04482
1070.99643,0.04493
1068.93682,0.04498
1066.87721,0.04500
1064.81760,0.04504
1062.75800,0.04508
1060.69839,0.04509
1058.63878,0.04510
1056.57917,0.04527
1054.51956,0.04552
1052.45995,0.04574
1050.40034,0.04587
1048.34074,0.04587
1046.28113,0.04589
1044.22152,0.04599
1042.16191,0.04608
1040.10230,0.04615
1038.04269,0.04628
1035.98308,0.04647
1033.92348,0.04667
1031.86387,0.04690
1029.80426,0.04715
1027.74465,0.04737
1025.68504,0.04755
1023.62543,0.04774
1021.56582,0.04794
1019.50622,0.04813
1017.44661,0.04833
1015.38700,0.04855
1013.32739,0.04878
1011.26778,0.04903
1009.20817,0.04925
1007.14857,0.04945
1005.08896,0.04971
1003.02935,0.05009
1000.96974,0.05050
998.91013,0.05077
996.85052,0.05096
994.79091,0.05121
992.73131,0.05155
990.67170,0.05192
988.61209,0.05227
986.55248,0.05264
984.49287,0.05304
982.43326,0.05346
980.37365,0.05396
978.31405,0.05451
976.25444,0.05503
974.19483,0.05558
972.13522,0.05612
970.07561,0.05666
968.01600,0.05717
965.95639,0.05763
963.89679,0.05808
961.83718,0.05864
959.77757,0.05929
957.71796,0.05994
955.65835,0.06061
953.59874,0.06133
951.53914,0.06205
949.47953,0.06281
947.41992,0.06364
945.36031,0.06448
943.30070,0.06531
941.24109,0.06615
939.18148,0.06708
937.12188,0.06805
935.06227,0.06896
933.00266,0.06988
930.94305,0.07088
928.88344,0.07193
926.82383,0.07301
924.76422,0.07410
922.70462,0.07526
920.64501,0.07650
918.58540,0.07773
916.52579,0.07893
914.46618,0.08015
912.40657,0.08143
910.34696,0.08276
908.28736,0.08410
906.22775,0.08552
904.16814,0.08702
902.10853,0.08851
900.04892,0.09004
897.98931,0.09159
895.92971,0.09323
893.87010,0.09492
891.81049,0.09655
889.75088,0.09816
887.69127,0.09979
885.63166,0.10150
883.57205,0.10322
881.51245,0.10493
879.45284,0.10666
877.39323,0.10846
875.33362,0.11040
873.27401,0.11233
871.21440,0.11420
869.15479,0.11611
867.09519,0.11814
865.03558,0.12031
862.97597,0.12249
860.91636,0.12459
858.85675,0.12665
856.79714,0.12862
854.73753,0.13065
852.67793,0.13288
850.61832,0.13506
848.55871,0.13719
846.49910,0.13946
844.43949,0.14169
842.37988,0.14378
840.32028,0.14600
838.26067,0.14843
836.20106,0.15085
834.14145,0.15321
832.08184,0.15557
830.02223,0.15788
827.96262,0.16016
825.90302,0.16248
823.84341,0.16479
821.78380,0.16701
819.72419,0.16928
817.66458,0.17173
815.60497,0.17424
813.54536,0.17670
811.48576,0.17912
809.42615,0.18153
807.36654,0.18405
805.30693,0.18659
803.24732,0.18892
801.18771,0.19123
799.12810,0.19366
