4096.56134,0.00302
4094.50173,0.00276
4092.44213,0.00238
4090.38252,0.00249
4088.32291,0.00229
4086.26330,0.00162
4084.20369,0.00136
4082.14408,0.00198
4080.08447,0.00291
4078.02487,0.00326
4075.96526,0.00345
4073.90565,0.00382
4071.84604,0.00376
4069.78643,0.00341
4067.72682,0.00316
4065.66721,0.00312
4063.60761,0.00333
4061.54800,0.00375
4059.48839,0.00394
4057.42878,0.00332
4055.36917,0.00296
4053.30956,0.00338
4051.24995,0.00342
4049.19035,0.00313
4047.13074,0.00316
4045.07113,0.00334
4043.01152,0.00348
4040.95191,0.00373
4038.89230,0.00398
4036.83270,0.00445
4034.77309,0.00527
4032.71348,0.00541
4030.65387,0.00481
4028.59426,0.00439
4026.53465,0.00429
4024.47504,0.00409
4022.41544,0.00381
4020.35583,0.00387
4018.29622,0.00404
4016.23661,0.00409
4014.17700,0.00430
4012.11739,0.00460
4010.05778,0.00473
4007.99818,0.00452
4005.93857,0.00404
4003.87896,0.00373
4001.81935,0.00363
3999.75974,0.00370
3997.70013,0.00408
3995.64052,0.00476
3993.58092,0.00529
3991.52131,0.00517
3989.46170,0.00477
3987.40209,0.00476
3985.34248,0.00516
3983.28287,0.00528
3981.22327,0.00482
3979.16366,0.00441
3977.10405,0.00475
3975.04444,0.00526
3972.98483,0.00513
3970.92522,0.00484
3968.86561,0.00484
3966.80601,0.00486
3964.74640,0.00470
3962.68679,0.00468
3960.62718,0.00507
3958.56757,0.00530
3956.50796,0.00516
3954.44835,0.00522
3952.38875,0.00535
3950.32914,0.00513
3948.26953,0.00485
3946.20992,0.00493
3944.15031,0.00522
3942.09070,0.00529
3940.03109,0.00510
3937.97149,0.00504
3935.91188,0.00534
3933.85227,0.00586
3931.79266,0.00628
3929.73305,0.00646
3927.67344,0.00654
3925.61384,0.00663
3923.55423,0.00672
3921.49462,0.00685
3919.43501,0.00685
3917.37540,0.00633
3915.31579,0.00547
3913.25618,0.00489
3911.19658,0.00497
3909.13697,0.00565
3907.07736,0.00636
3905.01775,0.00679
3902.95814,0.00684
3900.89853,0.00638
3898.83892,0.00591
3896.77932,0.00573
3894.71971,0.00547
3892.66010,0.00494
3890.60049,0.00454
3888.54088,0.00479
3886.48127,0.00574
3884.42166,0.00679
3882.36206,0.00715
3880.30245,0.00688
3878.24284,0.00660
3876.18323,0.00641
3874.12362,0.00623
3872.06401,0.00617
3870.00441,0.00604
3867.94480,0.00566
3865.88519,0.00541
3863.82558,0.00576
3861.76597,0.00649
3859.70636,0.00696
3857.64675,0.00700
3855.58715,0.00680
3853.52754,0.00679
3851.46793,0.00724
3849.40832,0.00762
3847.34871,0.00744
3845.28910,0.00687
3843.22949,0.00631
3841.16989,0.00615
3839.11028,0.00664
3837.05067,0.00735
3834.99106,0.00733
3832.93145,0.00669
3830.87184,0.00653
3828.81223,0.00700
3826.75263,0.00750
3824.69302,0.00764
3822.63341,0.00735
3820.57380,0.00721
3818.51419,0.00765
3816.45458,0.00813
3814.39498,0.00841
3812.33537,0.00857
3810.27576,0.00832
3808.21615,0.00761
3806.15654,0.00709
3804.09693,0.00725
3802.03732,0.00799
3799.97772,0.00889
3797.91811,0.00930
3795.85850,0.00939
3793.79889,0.00969
3791.73928,0.00996
3789.67967,0.00979
3787.62006,0.00954
3785.56046,0.00966
3783.50085,0.01001
3781.44124,0.01044
3779.38163,0.01103
3777.32202,0.01161
3775.26241,0.01207
3773.20280,0.01235
3771.14320,0.01227
3769.08359,0.01208
3767.02398,0.01227
3764.96437,0.01273
3762.90476,0.01313
3760.84515,0.01344
3758.78555,0.01344
3756.72594,0.01297
3754.66633,0.01267
3752.60672,0.01311
3750.54711,0.01394
3748.48750,0.01434
3746.42789,0.01447
3744.36829,0.01520
3742.30868,0.01602
3740.24907,0.01597
3738.18946,0.01587
3736.12985,0.01677
3734.07024,0.01812
3732.01063,0.01902
3729.95103,0.01948
3727.89142,0.01969
3725.83181,0.01999
3723.77220,0.02081
3721.71259,0.02191
3719.65298,0.02295
3717.59337,0.02414
3715.53377,0.02567
3713.47416,0.02727
3711.41455,0.02844
3709.35494,0.02918
3707.29533,0.03004
3705.23572,0.03124
3703.17612,0.03299
3701.11651,0.03545
3699.05690,0.03809
3696.99729,0.04032
3694.93768,0.04239
3692.87807,0.04492
3690.81846,0.04848
3688.75886,0.05275
3686.69925,0.05652
3684.63964,0.05957
3682.58003,0.06274
3680.52042,0.06674
3678.46081,0.07185
3676.40120,0.07803
3674.34160,0.08438
3672.28199,0.08988
3670.22238,0.09527
3668.16277,0.10052
3666.10316,0.10542
3664.04355,0.11112
3661.98394,0.11742
3659.92434,0.12330
3657.86473,0.12902
3655.80512,0.13524
3653.74551,0.14131
3651.68590,0.14733
3649.62629,0.15445
3647.56669,0.16206
3645.50708,0.16831
3643.44747,0.17300
3641.38786,0.17758
3639.32825,0.18320
3637.26864,0.18962
3635.20903,0.19578
3633.14943,0.20122
3631.08982,0.20679
3629.03021,0.21354
3626.97060,0.21995
3624.91099,0.22438
3622.85138,0.22830
3620.79177,0.23342
3618.73217,0.23961
3616.67256,0.24535
3614.61295,0.25041
3612.55334,0.25573
3610.49373,0.26117
3608.43412,0.26662
3606.37451,0.27226
3604.31491,0.27770
3602.25530,0.28314
3600.19569,0.28885
3598.13608,0.29446
3596.07647,0.29997
3594.01686,0.30546
3591.95726,0.31052
3589.89765,0.31517
3587.83804,0.32035
3585.77843,0.32629
3583.71882,0.33230
3581.65921,0.33830
3579.59960,0.34436
3577.54000,0.35017
3575.48039,0.35569
3573.42078,0.36112
3571.36117,0.36646
3569.30156,0.37217
3567.24195,0.37898
3565.18234,0.38623
3563.12274,0.39263
3561.06313,0.39816
3559.00352,0.40383
3556.94391,0.41024
3554.88430,0.41670
3552.82469,0.42274
3550.76508,0.42874
3548.70548,0.43491
3546.64587,0.44160
3544.58626,0.44889
3542.52665,0.45598
3540.46704,0.46256
3538.40743,0.46907
3536.34783,0.47581
3534.28822,0.48244
3532.22861,0.48855
3530.16900,0.49467
3528.10939,0.50120
3526.04978,0.50797
3523.99017,0.51510
3521.93057,0.52261
3519.87096,0.52983
3517.81135,0.53674
3515.75174,0.54333
3513.69213,0.54940
3511.63252,0.55608
3509.57291,0.56386
3507.51331,0.57139
3505.45370,0.57816
3503.39409,0.58484
3501.33448,0.59151
3499.27487,0.59810
3497.21526,0.60511
3495.15565,0.61251
3493.09605,0.61960
3491.03644,0.62646
3488.97683,0.63371
3486.91722,0.64094
3484.85761,0.64750
3482.79800,0.65408
3480.73840,0.66131
3478.67879,0.66864
3476.61918,0.67562
3474.55957,0.68250
3472.49996,0.68935
3470.44035,0.69615
3468.38074,0.70317
3466.32114,0.71020
3464.26153,0.71716
3462.20192,0.72453
3460.14231,0.73210
3458.08270,0.73965
3456.02309,0.74721
3453.96348,0.75442
3451.90388,0.76145
3449.84427,0.76840
3447.78466,0.77498
3445.72505,0.78176
3443.66544,0.78925
3441.60583,0.79718
3439.54622,0.80483
3437.48662,0.81163
3435.42701,0.81773
3433.36740,0.82400
3431.30779,0.83098
3429.24818,0.83832
3427.18857,0.84598
3425.12897,0.85347
3423.06936,0.85997
3421.00975,0.86600
3418.95014,0.87215
3416.89053,0.87806
3414.83092,0.88367
3412.77131,0.88923
3410.71171,0.89554
3408.65210,0.90260
3406.59249,0.90893
3404.53288,0.91402
3402.47327,0.91865
3400.41366,0.92326
3398.35405,0.92789
3396.29445,0.93283
3394.23484,0.93796
3392.17523,0.94275
3390.11562,0.94691
3388.05601,0.95068
3385.99640,0.95408
3383.93679,0.95740
3381.87719,0.96093
3379.81758,0.96411
3377.75797,0.96704
3375.69836,0.97040
3373.63875,0.97386
3371.57914,0.97618
3369.51954,0.97731
3367.45993,0.97858
3365.40032,0.98069
3363.34071,0.98279
3361.28110,0.98420
3359.22149,0.98546
3357.16188,0.98691
3355.10228,0.98813
3353.04267,0.98860
3350.98306,0.98834
3348.92345,0.98847
3346.86384,0.98937
3344.80423,0.99004
3342.74462,0.99053
3340.68502,0.99073
3338.62541,0.99006
3336.56580,0.98920
3334.50619,0.98842
3332.44658,0.98735
3330.38697,0.98659
3328.32736,0.98616
3326.26776,0.98516
3324.20815,0.98398
3322.14854,0.98350
3320.08893,0.98307
3318.02932,0.98169
3315.96971,0.97992
3313.91011,0.97887
3311.85050,0.97859
3309.79089,0.97852
3307.73128,0.97828
3305.67167,0.97750
3303.61206,0.97613
3301.55245,0.97502
3299.49285,0.97446
3297.43324,0.97351
3295.37363,0.97208
3293.31402,0.97080
3291.25441,0.96985
3289.19480,0.96920
3287.13519,0.96876
3285.07559,0.96835
3283.01598,0.96736
3280.95637,0.96622
3278.89676,0.96604
3276.83715,0.96593
3274.77754,0.96454
3272.71793,0.96296
3270.65833,0.96252
3268.59872,0.96260
3266.53911,0.96196
3264.47950,0.96040
3262.41989,0.95873
3260.36028,0.95736
3258.30068,0.95618
3256.24107,0.95537
3254.18146,0.95452
3252.12185,0.95293
3250.06224,0.95120
3248.00263,0.94959
3245.94302,0.94770
3243.88342,0.94561
3241.82381,0.94314
3239.76420,0.94050
3237.70459,0.93813
3235.64498,0.93544
3233.58537,0.93195
3231.52576,0.92839
3229.46616,0.92517
3227.40655,0.92175
3225.34694,0.91785
3223.28733,0.91356
3221.22772,0.90886
3219.16811,0.90371
3217.10850,0.89844
3215.04890,0.89328
3212.98929,0.88788
3210.92968,0.88240
3208.87007,0.87702
3206.81046,0.87123
3204.75085,0.86525
3202.69125,0.85924
3200.63164,0.85260
3198.57203,0.84517
3196.51242,0.83732
3194.45281,0.82924
3192.39320,0.82120
3190.33359,0.81337
3188.27399,0.80567
3186.21438,0.79812
3184.15477,0.79039
3182.09516,0.78210
3180.03555,0.77378
3177.97594,0.76556
3175.91633,0.75649
3173.85673,0.74649
3171.79712,0.73676
3169.73751,0.72772
3167.67790,0.71891
3165.61829,0.71004
3163.55868,0.70071
3161.49907,0.69088
3159.43947,0.68117
3157.37986,0.67156
3155.32025,0.66171
3153.26064,0.65167
3151.20103,0.64181
3149.14142,0.63228
3147.08182,0.62264
3145.02221,0.61296
3142.96260,0.60358
3140.90299,0.59419
3138.84338,0.58473
3136.78377,0.57560
3134.72416,0.56635
3132.66456,0.55648
3130.60495,0.54677
3128.54534,0.53774
3126.48573,0.52877
3124.42612,0.51968
3122.36651,0.51047
3120.30690,0.50111
3118.24730,0.49180
3116.18769,0.48263
3114.12808,0.47389
3112.06847,0.46551
3110.00886,0.45707
3107.94925,0.44877
3105.88965,0.44036
3103.83004,0.43169
3101.77043,0.42356
3099.71082,0.41604
3097.65121,0.40843
3095.59160,0.40065
3093.53199,0.39291
3091.47239,0.38540
3089.41278,0.37839
3087.35317,0.37163
3085.29356,0.36447
3083.23395,0.35685
3081.17434,0.34947
3079.11473,0.34272
3077.05513,0.33621
3074.99552,0.32933
3072.93591,0.32217
3070.87630,0.31554
3068.81669,0.30965
3066.75708,0.30386
3064.69747,0.29788
3062.63787,0.29192
3060.57826,0.28601
3058.51865,0.28012
3056.45904,0.27455
3054.39943,0.26933
3052.33982,0.26380
3050.28022,0.25802
3048.22061,0.25283
3046.16100,0.24816
3044.10139,0.24340
3042.04178,0.23835
3039.98217,0.23328
3037.92256,0.22847
3035.86296,0.22376
3033.80335,0.21906
3031.74374,0.21452
3029.68413,0.21016
3027.62452,0.20586
3025.56491,0.20171
3023.50530,0.19776
3021.44570,0.19376
3019.38609,0.18934
3017.32648,0.18482
3015.26687,0.18083
3013.20726,0.17723
3011.14765,0.17347
3009.08804,0.16979
3007.02844,0.16659
3004.96883,0.16344
3002.90922,0.15976
3000.84961,0.15589
2998.79000,0.15255
2996.73039,0.14965
2994.67079,0.14668
2992.61118,0.14363
2990.55157,0.14044
2988.49196,0.13692
2986.43235,0.13337
2984.37274,0.13032
2982.31313,0.12753
2980.25353,0.12460
2978.19392,0.12166
2976.13431,0.11901
2974.07470,0.11656
2972.01509,0.11413
2969.95548,0.11184
2967.89587,0.10998
2965.83627,0.10860
2963.77666,0.10741
2961.71705,0.10618
2959.65744,0.10496
2957.59783,0.10345
2955.53822,0.10139
2953.47861,0.09912
2951.41901,0.09686
2949.35940,0.09465
2947.29979,0.09245
2945.24018,0.09021
2943.18057,0.08819
2941.12096,0.08653
2939.06136,0.08524
2937.00175,0.08416
2934.94214,0.08299
2932.88253,0.08185
2930.82292,0.08082
2928.76331,0.07964
2926.70370,0.07838
2924.64410,0.07708
2922.58449,0.07585
2920.52488,0.07527
2918.46527,0.07481
2916.40566,0.07294
2914.34605,0.06951
2912.28644,0.06590
2910.22684,0.06322
2908.16723,0.06165
2906.10762,0.06046
2904.04801,0.05910
2901.98840,0.05772
2899.92879,0.05663
2897.86918,0.05573
2895.80958,0.05450
2893.74997,0.05282
2891.69036,0.05116
2889.63075,0.04991
2887.57114,0.04904
2885.51153,0.04838
2883.45193,0.04776
2881.39232,0.04698
2879.33271,0.04603
2877.27310,0.04520
2875.21349,0.04461
2873.15388,0.04400
2871.09427,0.04318
2869.03467,0.04217
2866.97506,0.04128
2864.91545,0.04064
2862.85584,0.04002
2860.79623,0.03935
2858.73662,0.03868
2856.67701,0.03816
2854.61741,0.03795
2852.55780,0.03792
2850.49819,0.03784
2848.43858,0.03742
2846.37897,0.03628
2844.31936,0.03465
2842.25975,0.03326
2840.20015,0.03232
2838.14054,0.03157
2836.08093,0.03089
2834.02132,0.03044
2831.96171,0.03008
2829.90210,0.02957
2827.84250,0.02901
2825.78289,0.02835
2823.72328,0.02757
2821.66367,0.02706
2819.60406,0.02678
2817.54445,0.02640
2815.48484,0.02599
2813.42524,0.02555
2811.36563,0.02499
2809.30602,0.02451
2807.24641,0.02407
2805.18680,0.02367
2803.12719,0.02343
2801.06758,0.02315
2799.00798,0.02263
2796.94837,0.02224
2794.88876,0.02213
2792.82915,0.02186
2790.76954,0.02124
2788.70993,0.02055
2786.65032,0.02011
2784.59072,0.01999
2782.53111,0.02007
2780.47150,0.02008
2778.41189,0.01977
2776.35228,0.01931
2774.29267,0.01892
2772.23307,0.01851
2770.17346,0.01814
2768.11385,0.01788
2766.05424,0.01763
2763.99463,0.01742
2761.93502,0.01730
2759.87541,0.01715
2757.81581,0.01695
2755.75620,0.01668
2753.69659,0.01629
2751.63698,0.01606
2749.57737,0.01607
2747.51776,0.01602
2745.45815,0.01577
2743.39855,0.01551
2741.33894,0.01536
2739.27933,0.01524
2737.21972,0.01510
2735.16011,0.01492
2733.10050,0.01466
2731.04089,0.01430
2728.98129,0.01412
2726.92168,0.01421
2724.86207,0.01420
2722.80246,0.01402
2720.74285,0.01376
2718.68324,0.01343
2716.62364,0.01324
2714.56403,0.01321
2712.50442,0.01315
2710.44481,0.01313
2708.38520,0.01324
2706.32559,0.01339
2704.26598,0.01347
2702.20638,0.01323
2700.14677,0.01271
2698.08716,0.01221
2696.02755,0.01204
2693.96794,0.01217
2691.90833,0.01221
2689.84872,0.01202
2687.78912,0.01178
2685.72951,0.01159
2683.66990,0.01156
2681.61029,0.01172
2679.55068,0.01183
2677.49107,0.01165
2675.43146,0.01148
2673.37186,0.01149
2671.31225,0.01156
2669.25264,0.01175
2667.19303,0.01189
2665.13342,0.01167
2663.07381,0.01134
2661.01421,0.01114
2658.95460,0.01107
2656.89499,0.01109
2654.83538,0.01096
2652.77577,0.01072
2650.71616,0.01076
2648.65655,0.01103
2646.59695,0.01114
2644.53734,0.01090
2642.47773,0.01054
2640.41812,0.01034
2638.35851,0.01016
2636.29890,0.01005
2634.23929,0.01020
2632.17969,0.01024
2630.12008,0.01007
2628.06047,0.01001
2626.00086,0.01003
2623.94125,0.01000
2621.88164,0.01000
2619.82203,0.00994
2617.76243,0.00980
2615.70282,0.00982
2613.64321,0.00992
2611.58360,0.00983
2609.52399,0.00969
2607.46438,0.00969
2605.40478,0.00986
2603.34517,0.00993
2601.28556,0.00988
2599.22595,0.00985
2597.16634,0.00976
2595.10673,0.00984
2593.04712,0.01011
2590.98752,0.01000
2588.92791,0.00953
2586.86830,0.00939
2584.80869,0.00976
2582.74908,0.01004
2580.68947,0.00989
2578.62986,0.00976
2576.57026,0.00995
2574.51065,0.01011
2572.45104,0.01017
2570.39143,0.01023
2568.33182,0.01012
2566.27221,0.01014
2564.21260,0.01045
2562.15300,0.01049
2560.09339,0.01050
2558.03378,0.01093
2555.97417,0.01107
2553.91456,0.01069
2551.85495,0.01022
2549.79535,0.00995
2547.73574,0.01022
2545.67613,0.01067
2543.61652,0.01087
2541.55691,0.01096
2539.49730,0.01101
2537.43769,0.01116
2535.37809,0.01105
2533.31848,0.01070
2531.25887,0.01067
2529.19926,0.01093
2527.13965,0.01118
2525.08004,0.01145
2523.02043,0.01196
2520.96083,0.01230
2518.90122,0.01208
2516.84161,0.01173
2514.78200,0.01155
2512.72239,0.01160
2510.66278,0.01188
2508.60317,0.01215
2506.54357,0.01243
2504.48396,0.01272
2502.42435,0.01296
2500.36474,0.01308
2498.30513,0.01269
2496.24552,0.01231
2494.18592,0.01286
2492.12631,0.01351
2490.06670,0.01324
2488.00709,0.01271
2485.94748,0.01261
2483.88787,0.01278
2481.82826,0.01304
2479.76866,0.01310
2477.70905,0.01285
2475.64944,0.01262
2473.58983,0.01276
2471.53022,0.01320
2469.47061,0.01360
2467.41100,0.01367
2465.35140,0.01364
2463.29179,0.01401
2461.23218,0.01438
2459.17257,0.01430
2457.11296,0.01413
2455.05335,0.01427
2452.99374,0.01459
2450.93414,0.01481
2448.87453,0.01483
2446.81492,0.01502
2444.75531,0.01549
2442.69570,0.01563
2440.63609,0.01541
2438.57649,0.01538
2436.51688,0.01550
2434.45727,0.01533
2432.39766,0.01510
2430.33805,0.01533
2428.27844,0.01566
2426.21883,0.01558
2424.15923,0.01538
2422.09962,0.01549
2420.04001,0.01571
2417.98040,0.01576
2415.92079,0.01591
2413.86118,0.01633
2411.80157,0.01659
2409.74197,0.01649
2407.68236,0.01646
2405.62275,0.01676
2403.56314,0.01714
2401.50353,0.01746
2399.44392,0.01758
2397.38431,0.01755
2395.32471,0.01752
2393.26510,0.01759
2391.20549,0.01779
2389.14588,0.01813
2387.08627,0.01846
2385.02666,0.01869
2382.96706,0.01881
2380.90745,0.01870
2378.84784,0.01851
2376.78823,0.01857
2374.72862,0.01879
2372.66901,0.01872
2370.60940,0.01836
2368.54980,0.01824
2366.49019,0.01866
2364.43058,0.01920
2362.37097,0.01942
2360.31136,0.01947
2358.25175,0.01964
2356.19214,0.01989
2354.13254,0.02019
2352.07293,0.02055
2350.01332,0.02068
2347.95371,0.02057
2345.89410,0.02079
2343.83449,0.02145
2341.77488,0.02176
2339.71528,0.02157
2337.65567,0.02140
2335.59606,0.02156
2333.53645,0.02207
2331.47684,0.02256
2329.41723,0.02266
2327.35763,0.02266
2325.29802,0.02278
2323.23841,0.02277
2321.17880,0.02245
2319.11919,0.02216
2317.05958,0.02240
2314.99997,0.02303
2312.94037,0.02356
2310.88076,0.02389
2308.82115,0.02429
2306.76154,0.02485
2304.70193,0.02518
2302.64232,0.02508
2300.58271,0.02481
2298.52311,0.02460
2296.46350,0.02451
2294.40389,0.02456
2292.34428,0.02457
2290.28467,0.02461
2288.22506,0.02489
2286.16545,0.02517
2284.10585,0.02520
2282.04624,0.02532
2279.98663,0.02552
2277.92702,0.02549
2275.86741,0.02553
2273.80780,0.02599
2271.74820,0.02634
2269.68859,0.02596
2267.62898,0.02565
2265.56937,0.02605
2263.50976,0.02636
2261.45015,0.02628
2259.39054,0.02638
2257.33094,0.02654
2255.27133,0.02645
2253.21172,0.02657
2251.15211,0.02723
2249.09250,0.02785
2247.03289,0.02772
2244.97328,0.02747
2242.91368,0.02757
2240.85407,0.02746
2238.79446,0.02736
2236.73485,0.02738
2234.67524,0.02742
2232.61563,0.02765
2230.55602,0.02783
2228.49642,0.02770
2226.43681,0.02728
2224.37720,0.02721
2222.31759,0.02762
2220.25798,0.02786
2218.19837,0.02805
2216.13877,0.02877
2214.07916,0.02973
2212.01955,0.02994
2209.95994,0.02909
2207.90033,0.02819
2205.84072,0.02866
2203.78111,0.03002
2201.72151,0.03026
2199.66190,0.02949
2197.60229,0.02933
2195.54268,0.02931
2193.48307,0.02844
2191.42346,0.02761
2189.36385,0.02778
2187.30425,0.02852
2185.24464,0.02894
2183.18503,0.02894
2181.12542,0.02887
2179.06581,0.02892
2177.00620,0.02898
2174.94659,0.02901
2172.88699,0.02942
2170.82738,0.02997
2168.76777,0.03029
2166.70816,0.03057
2164.64855,0.02993
2162.58894,0.02819
2160.52934,0.02719
2158.46973,0.02750
2156.41012,0.02860
2154.35051,0.02992
2152.29090,0.03113
2150.23129,0.03273
2148.17168,0.03355
2146.11208,0.03243
2144.05247,0.03119
2141.99286,0.03148
2139.93325,0.03283
2137.87364,0.03380
2135.81403,0.03419
2133.75442,0.03475
2131.69482,0.03496
2129.63521,0.03484
2127.57560,0.03510
2125.51599,0.03548
2123.45638,0.03584
2121.39677,0.03620
2119.33716,0.03609
2117.27756,0.03570
2115.21795,0.03554
2113.15834,0.03540
2111.09873,0.03519
2109.03912,0.03525
2106.97951,0.03558
2104.91991,0.03570
2102.86030,0.03562
2100.80069,0.03531
2098.74108,0.03472
2096.68147,0.03397
2094.62186,0.03328
2092.56225,0.03321
2090.50265,0.03374
2088.44304,0.03421
2086.38343,0.03409
2084.32382,0.03351
2082.26421,0.03297
2080.20460,0.03253
2078.14499,0.03219
2076.08539,0.03217
2074.02578,0.03218
2071.96617,0.03217
2069.90656,0.03260
2067.84695,0.03338
2065.78734,0.03371
2063.72773,0.03307
2061.66813,0.03200
2059.60852,0.03149
2057.54891,0.03155
2055.48930,0.03154
2053.42969,0.03143
2051.37008,0.03126
2049.31048,0.03072
2047.25087,0.02963
2045.19126,0.02845
2043.13165,0.02755
2041.07204,0.02672
2039.01243,0.02626
2036.95282,0.02647
2034.89322,0.02658
2032.83361,0.02580
2030.77400,0.02459
2028.71439,0.02362
2026.65478,0.02276
2024.59517,0.02248
2022.53556,0.02321
2020.47596,0.02421
2018.41635,0.02470
2016.35674,0.02431
2014.29713,0.02346
2012.23752,0.02318
2010.17791,0.02334
2008.11830,0.02294
2006.05870,0.02214
2003.99909,0.02183
2001.93948,0.02212
1999.87987,0.02256
1997.82026,0.02262
1995.76065,0.02225
1993.70105,0.02176
1991.64144,0.02143
1989.58183,0.02126
1987.52222,0.02107
1985.46261,0.02081
1983.40300,0.02067
1981.34339,0.02035
1979.28379,0.01933
1977.22418,0.01815
1975.16457,0.01779
1973.10496,0.01852
1971.04535,0.01951
1968.98574,0.01947
1966.92613,0.01836
1964.86653,0.01776
1962.80692,0.01833
1960.74731,0.01901
1958.68770,0.01908
1956.62809,0.01844
1954.56848,0.01753
1952.50887,0.01727
1950.44927,0.01792
1948.38966,0.01904
1946.33005,0.02007
1944.27044,0.02045
1942.21083,0.02001
1940.15122,0.01960
1938.09162,0.01974
1936.03201,0.02008
1933.97240,0.02024
1931.91279,0.02001
1929.85318,0.01966
1927.79357,0.01968
1925.73396,0.01998
1923.67436,0.02014
1921.61475,0.01987
1919.55514,0.01948
1917.49553,0.01959
1915.43592,0.01979
1913.37631,0.01953
1911.31670,0.01922
1909.25710,0.01927
1907.19749,0.01941
1905.13788,0.01935
1903.07827,0.01917
1901.01866,0.01911
1898.95905,0.01923
1896.89944,0.01945
1894.83984,0.01966
1892.78023,0.01962
1890.72062,0.01942
1888.66101,0.01941
1886.60140,0.01956
1884.54179,0.01970
1882.48219,0.01984
1880.42258,0.02000
1878.36297,0.02016
1876.30336,0.02016
1874.24375,0.01981
1872.18414,0.01942
1870.12453,0.01946
1868.06493,0.01990
1866.00532,0.02029
1863.94571,0.02033
1861.88610,0.02017
1859.82649,0.02010
1857.76688,0.02013
1855.70727,0.02017
1853.64767,0.02031
1851.58806,0.02065
1849.52845,0.02091
1847.46884,0.02073
1845.40923,0.02048
1843.34962,0.02052
1841.29002,0.02061
1839.23041,0.02059
1837.17080,0.02060
1835.11119,0.02086
1833.05158,0.02134
1830.99197,0.02178
1828.93236,0.02199
1826.87276,0.02203
1824.81315,0.02208
1822.75354,0.02221
1820.69393,0.02239
1818.63432,0.02251
1816.57471,0.02264
1814.51510,0.02292
1812.45550,0.02324
1810.39589,0.02337
1808.33628,0.02342
1806.27667,0.02361
1804.21706,0.02396
1802.15745,0.02432
1800.09784,0.02462
1798.03824,0.02489
1795.97863,0.02512
1793.91902,0.02534
1791.85941,0.02561
1789.79980,0.02596
1787.74019,0.02638
1785.68059,0.02681
1783.62098,0.02716
1781.56137,0.02754
1779.50176,0.02811
1777.44215,0.02867
1775.38254,0.02896
1773.32293,0.02919
1771.26333,0.02967
1769.20372,0.03040
1767.14411,0.03119
1765.08450,0.03188
1763.02489,0.03256
1760.96528,0.03337
1758.90567,0.03421
1756.84607,0.03514
1754.78646,0.03606
1752.72685,0.03687
1750.66724,0.03776
1748.60763,0.03876
1746.54802,0.03971
1744.48841,0.04075
1742.42881,0.04206
1740.36920,0.04344
1738.30959,0.04461
1736.24998,0.04582
1734.19037,0.04760
1732.13076,0.04966
1730.07116,0.05153
1728.01155,0.05341
1725.95194,0.05543
1723.89233,0.05751
1721.83272,0.05946
1719.77311,0.06156
1717.71350,0.06447
1715.65390,0.06792
1713.59429,0.07087
1711.53468,0.07325
1709.47507,0.07564
1707.41546,0.07830
1705.35585,0.08094
1703.29624,0.08338
1701.23664,0.08672
1699.17703,0.09163
1697.11742,0.09710
1695.05781,0.10271
1692.99820,0.10790
1690.93859,0.11270
1688.87898,0.11769
1686.81938,0.12293
1684.75977,0.12962
1682.70016,0.13746
1680.64055,0.14407
1678.58094,0.14967
1676.52133,0.15577
1674.46173,0.16270
1672.40212,0.16950
1670.34251,0.17646
1668.28290,0.18392
1666.22329,0.19068
1664.16368,0.19735
1662.10407,0.20498
1660.04447,0.21220
1657.98486,0.21764
1655.92525,0.22229
1653.86564,0.22891
1651.80603,0.23663
1649.74642,0.24133
1647.68681,0.24466
1645.62721,0.24857
1643.56760,0.25146
1641.50799,0.25271
1639.44838,0.25290
1637.38877,0.25248
1635.32916,0.25162
1633.26955,0.24972
1631.20995,0.24642
1629.15034,0.24199
1627.09073,0.23683
1625.03112,0.23112
1622.97151,0.22480
1620.91190,0.21811
1618.85230,0.21092
1616.79269,0.20276
1614.73308,0.19452
1612.67347,0.18702
1610.61386,0.17972
1608.55425,0.17243
1606.49464,0.16544
1604.43504,0.15891
1602.37543,0.15283
1600.31582,0.14718
1598.25621,0.14191
1596.19660,0.13689
1594.13699,0.13211
1592.07738,0.12760
1590.01778,0.12336
1587.95817,0.11941
1585.89856,0.11575
1583.83895,0.11231
1581.77934,0.10905
1579.71973,0.10607
1577.66012,0.10335
1575.60052,0.10094
1573.54091,0.09901
1571.48130,0.09740
1569.42169,0.09597
1567.36208,0.09470
1565.30247,0.09347
1563.24287,0.09232
1561.18326,0.09145
1559.12365,0.09105
1557.06404,0.09091
1555.00443,0.09071
1552.94482,0.09054
1550.88521,0.09045
1548.82561,0.09017
1546.76600,0.08957
1544.70639,0.08890
1542.64678,0.08839
1540.58717,0.08772
1538.52756,0.08638
1536.46795,0.08431
1534.40835,0.08162
1532.34874,0.07871
1530.28913,0.07608
1528.22952,0.07370
1526.16991,0.07148
1524.11030,0.06945
1522.05069,0.06758
1519.99109,0.06578
1517.93148,0.06400
1515.87187,0.06213
1513.81226,0.06014
1511.75265,0.05800
1509.69304,0.05574
1507.63344,0.05367
1505.57383,0.05228
1503.51422,0.05147
1501.45461,0.05074
1499.39500,0.05010
1497.33539,0.04986
1495.27578,0.04996
1493.21618,0.05007
1491.15657,0.05026
1489.09696,0.05087
1487.03735,0.05174
1484.97774,0.05248
1482.91813,0.05305
1480.85852,0.05355
1478.79892,0.05399
1476.73931,0.05431
1474.67970,0.05453
1472.62009,0.05478
1470.56048,0.05502
1468.50087,0.05504
1466.44126,0.05495
1464.38166,0.05501
1462.32205,0.05516
1460.26244,0.05518
1458.20283,0.05502
1456.14322,0.05458
1454.08361,0.05375
1452.02401,0.05270
1449.96440,0.05173
1447.90479,0.05106
1445.84518,0.05065
1443.78557,0.05033
1441.72596,0.05003
1439.66635,0.04976
1437.60675,0.04969
1435.54714,0.04997
1433.48753,0.05041
1431.42792,0.05081
1429.36831,0.05110
1427.30870,0.05126
1425.24909,0.05136
1423.18949,0.05141
1421.12988,0.05134
1419.07027,0.05121
1417.01066,0.05109
1414.95105,0.05090
1412.89144,0.05065
1410.83183,0.05040
1408.77223,0.05014
1406.71262,0.04988
1404.65301,0.04981
1402.59340,0.05001
1400.53379,0.05038
1398.47418,0.05071
1396.41458,0.05073
1394.35497,0.05044
1392.29536,0.05008
1390.23575,0.04983
1388.17614,0.04965
1386.11653,0.04936
1384.05692,0.04890
1381.99732,0.04835
1379.93771,0.04789
1377.87810,0.04761
1375.81849,0.04753
1373.75888,0.04753
1371.69927,0.04751
1369.63966,0.04741
1367.58006,0.04727
1365.52045,0.04722
1363.46084,0.04751
1361.40123,0.04814
1359.34162,0.04873
1357.28201,0.04909
1355.22240,0.04925
1353.16280,0.04926
1351.10319,0.04920
1349.04358,0.04916
1346.98397,0.04915
1344.92436,0.04909
1342.86475,0.04902
1340.80515,0.04903
1338.74554,0.04908
1336.68593,0.04897
1334.62632,0.04870
1332.56671,0.04850
1330.50710,0.04847
1328.44749,0.04851
1326.38789,0.04856
1324.32828,0.04859
1322.26867,0.04857
1320.20906,0.04862
1318.14945,0.04875
1316.08984,0.04875
1314.03023,0.04864
1311.97063,0.04859
1309.91102,0.04858
1307.85141,0.04846
1305.79180,0.04828
1303.73219,0.04813
1301.67258,0.04803
1299.61297,0.04793
1297.55337,0.04785
1295.49376,0.04777
1293.43415,0.04761
1291.37454,0.04740
1289.31493,0.04725
1287.25532,0.04715
1285.19572,0.04703
1283.13611,0.04696
1281.07650,0.04689
1279.01689,0.04671
1276.95728,0.04647
1274.89767,0.04622
1272.83806,0.04580
1270.77846,0.04526
1268.71885,0.04486
1266.65924,0.04465
1264.59963,0.04448
1262.54002,0.04436
1260.48041,0.04444
1258.42080,0.04460
1256.36120,0.04454
1254.30159,0.04434
1252.24198,0.04421
1250.18237,0.04421
1248.12276,0.04423
1246.06315,0.04412
1244.00354,0.04380
1241.94394,0.04339
1239.88433,0.04299
1237.82472,0.04255
1235.76511,0.04198
1233.70550,0.04134
1231.64589,0.04085
1229.58629,0.04054
1227.52668,0.04029
1225.46707,0.04009
1223.40746,0.04004
1221.34785,0.04002
1219.28824,0.03998
1217.22863,0.03998
1215.16903,0.04009
1213.10942,0.04030
1211.04981,0.04066
1208.99020,0.04113
1206.93059,0.04149
1204.87098,0.04168
1202.81137,0.04190
1200.75177,0.04218
1198.69216,0.04236
1196.63255,0.04241
1194.57294,0.04254
1192.51333,0.04275
1190.45372,0.04285
1188.39411,0.04288
1186.33451,0.04297
1184.27490,0.04308
1182.21529,0.04307
1180.15568,0.04295
1178.09607,0.04277
1176.03646,0.04250
1173.97686,0.04215
1171.91725,0.04175
1169.85764,0.04134
1167.79803,0.04095
1165.73842,0.04056
1163.67881,0.04024
1161.61920,0.04014
1159.55960,0.04021
1157.49999,0.04029
1155.44038,0.04032
1153.38077,0.04043
1151.32116,0.04070
1149.26155,0.04093
1147.20194,0.04108
1145.14234,0.04127
1143.08273,0.04141
1141.02312,0.04141
1138.96351,0.04136
1136.90390,0.04122
1134.84429,0.04091
1132.78468,0.04054
1130.72508,0.04032
1128.66547,0.04030
1126.60586,0.04043
1124.54625,0.04063
1122.48664,0.04084
1120.42703,0.04110
1118.36743,0.04132
1116.30782,0.04140
1114.24821,0.04131
1112.18860,0.04118
1110.12899,0.04111
1108.06938,0.04108
1106.00977,0.04102
1103.95017,0.04090
1101.89056,0.04075
1099.83095,0.04068
1097.77134,0.04079
1095.71173,0.04091
1093.65212,0.04093
1091.59251,0.04091
1089.53291,0.04099
1087.47330,0.04107
1085.41369,0.04103
1083.35408,0.04098
1081.29447,0.04093
1079.23486,0.04079
1077.17525,0.04059
1075.11565,0.04043
1073.05604,0.04028
1070.99643,0.04016
1068.93682,0.04012
1066.87721,0.04011
1064.81760,0.04010
1062.75800,0.04004
1060.69839,0.03995
1058.63878,0.03990
1056.57917,0.03998
1054.51956,0.04020
1052.45995,0.04049
1050.40034,0.04075
1048.34074,0.04088
1046.28113,0.04087
1044.22152,0.04086
1042.16191,0.04101
1040.10230,0.04128
1038.04269,0.04154
1035.98308,0.04180
1033.92348,0.04212
1031.86387,0.04241
1029.80426,0.04266
1027.74465,0.04294
1025.68504,0.04319
1023.62543,0.04340
1021.56582,0.04354
1019.50622,0.04362
1017.44661,0.04361
1015.38700,0.04352
1013.32739,0.04358
1011.26778,0.04386
1009.20817,0.04411
1007.14857,0.04422
1005.08896,0.04437
1003.02935,0.04458
1000.96974,0.04476
998.91013,0.04495
996.85052,0.04519
994.79091,0.04544
992.73131,0.04579
990.67170,0.04621
988.61209,0.04664
986.55248,0.04709
984.49287,0.04750
982.43326,0.04778
980.37365,0.04799
978.31405,0.04811
976.25444,0.04823
974.19483,0.04850
972.13522,0.04899
970.07561,0.04968
968.01600,0.05036
965.95639,0.05088
963.89679,0.05128
961.83718,0.05155
959.77757,0.05168
957.71796,0.05180
955.65835,0.05184
953.59874,0.05181
951.53914,0.05201
949.47953,0.05258
947.41992,0.05346
945.36031,0.05461
943.30070,0.05581
941.24109,0.05690
939.18148,0.05793
937.12188,0.05888
935.06227,0.05967
933.00266,0.06039
930.94305,0.06118
928.88344,0.06203
926.82383,0.06291
924.76422,0.06391
922.70462,0.06504
920.64501,0.06616
918.58540,0.06710
916.52579,0.06790
914.46618,0.06887
912.40657,0.07006
910.34696,0.07121
908.28736,0.07220
906.22775,0.07322
904.16814,0.07434
902.10853,0.07545
900.04892,0.07662
897.98931,0.07788
895.92971,0.07916
893.87010,0.08040
891.81049,0.08162
889.75088,0.08290
887.69127,0.08419
885.63166,0.08547
883.57205,0.08683
881.51245,0.08818
879.45284,0.08950
877.39323,0.09079
875.33362,0.09210
873.27401,0.09357
871.21440,0.09517
869.15479,0.09674
867.09519,0.09826
865.03558,0.09968
862.97597,0.10097
860.91636,0.10228
858.85675,0.10367
856.79714,0.10508
854.73753,0.10655
852.67793,0.10812
850.61832,0.10969
848.55871,0.11127
846.49910,0.11280
844.43949,0.11421
842.37988,0.11576
840.32028,0.11744
838.26067,0.11896
836.20106,0.12032
834.14145,0.12175
832.08184,0.12337
830.02223,0.12496
827.96262,0.12640
825.90302,0.12787
823.84341,0.12942
821.78380,0.13097
819.72419,0.13243
817.66458,0.13371
815.60497,0.13511
813.54536,0.13686
811.48576,0.13872
809.42615,0.14041
807.36654,0.14196
805.30693,0.14356
803.24732,0.14527
801.18771,0.14695
799.12810,0.14858
797.06850,0.15025
795.00889,0.15176
792.94928,0.15307
790.88967,0.15437
788.83006,0.15572
786.77045,0.15715
784.71085,0.15866
782.65124,0.16025
780.59163,0.16190
778.53202,0.16343
776.47241,0.16472
774.41280,0.16599
772.35319,0.16742
770.29359,0.16887
768.23398,0.17015
766.17437,0.17150
764.11476,0.17298
762.05515,0.17445
759.99554,0.17603
757.93593,0.17757
755.87633,0.17882
753.81672,0.17993
751.75711,0.18115
749.69750,0.18256
747.63789,0.18401
745.57828,0.18536
743.51867,0.18654
741.45907,0.18766
739.39946,0.18884
737.33985,0.19000
735.28024,0.19107
733.22063,0.19213
731.16102,0.19326
729.10142,0.19440
727.04181,0.19544
724.98220,0.19630
722.92259,0.19735
720.86298,0.19889
718.80337,0.20044
716.74376,0.20157
714.68416,0.20262
712.62455,0.20391
710.56494,0.20516
708.50533,0.20630
706.44572,0.20749
704.38611,0.20859
702.32650,0.20959
700.26690,0.21069
698.20729,0.21172
696.14768,0.21254
694.08807,0.21355
692.02846,0.21490
689.96885,0.21626
687.90924,0.21742
685.84964,0.21818
683.79003,0.21879
681.73042,0.21986
679.67081,0.22129
677.61120,0.22252
675.55159,0.22354
673.49199,0.22442
671.43238,0.22499
669.37277,0.22584
667.31316,0.22737
665.25355,0.22836
663.19394,0.22875
661.13433,0.22944
659.07473,0.23041
657.01512,0.23121
654.95551,0.23170
652.89590,0.23217
650.83629,0.23292
648.77668,0.23378
646.71707,0.23456
644.65747,0.23537
642.59786,0.23612
640.53825,0.23676
638.47864,0.23754
636.41903,0.23826
634.35942,0.23870
632.29981,0.23918
630.24021,0.23989
628.18060,0.24049
626.12099,0.24076
624.06138,0.24119
622.00177,0.24202
619.94216,0.24270
617.88256,0.24308
615.82295,0.24358
613.76334,0.24417
611.70373,0.24453
609.64412,0.24466
607.58451,0.24494
605.52490,0.24536
603.46530,0.24576
601.40569,0.24627
599.34608,0.24678
597.28647,0.24705
595.22686,0.24721
593.16725,0.24760
591.10764,0.24817
589.04804,0.24869
586.98843,0.24911
584.92882,0.24932
582.86921,0.24923
580.80960,0.24899
578.74999,0.24879
576.69039,0.24871
574.63078,0.24869
572.57117,0.24869
570.51156,0.24888
568.45195,0.24908
566.39234,0.24909
564.33273,0.24900
562.27313,0.24899
560.21352,0.24917
558.15391,0.24897
556.09430,0.24822
554.03469,0.24773
551.97508,0.24789
549.91547,0.24818
547.85587,0.24820
545.79626,0.24805
543.73665,0.24802
541.67704,0.24814
539.61743,0.24825
537.55782,0.24802
535.49821,0.24720
533.43861,0.24621
531.37900,0.24569
529.31939,0.24594
527.25978,0.24646
525.20017,0.24649
523.14056,0.24613
521.08096,0.24594
519.02135,0.24580
516.96174,0.24512
514.90213,0.24406
512.84252,0.24332
510.78291,0.24309
508.72330,0.24288
506.66370,0.24235
504.60409,0.24179
502.54448,0.24148
500.48487,0.24141
498.42526,0.24145
496.36565,0.24126
494.30604,0.24057
492.24644,0.23959
490.18683,0.23845
488.12722,0.23757
486.06761,0.23730
484.00800,0.23715
481.94839,0.23680
479.88878,0.23632
477.82918,0.23579
475.76957,0.23554
473.70996,0.23528
471.65035,0.23449
469.59074,0.23359
467.53113,0.23286
465.47153,0.23200
463.41192,0.23097
461.35231,0.23005
459.29270,0.22943
457.23309,0.22934
455.17348,0.22957
453.11387,0.22932
451.05427,0.22841
448.99466,0.22733
446.93505,0.22624
444.87544,0.22509
442.81583,0.22426
440.75622,0.22410
438.69661,0.22395
436.63701,0.22278
434.57740,0.22105
432.51779,0.22036
430.45818,0.22078
428.39857,0.22074
426.33896,0.21928
424.27935,0.21743
422.21975,0.21667
420.16014,0.21685
418.10053,0.21650
416.04092,0.21499
413.98131,0.21367
411.92170,0.21338
409.86210,0.21306
407.80249,0.21165
405.74288,0.20948
403.68327,0.20752
401.62366,0.20628
399.56405,0.20548
