3997.66060,0.03895
3995.60101,0.03835
3993.54142,0.03828
3991.48183,0.03883
3989.42224,0.03864
3987.36265,0.03807
3985.30307,0.03798
3983.24348,0.03775
3981.18389,0.03753
3979.12430,0.03794
3977.06471,0.03827
3975.00513,0.03767
3972.94554,0.03723
3970.88595,0.03779
3968.82636,0.03853
3966.76677,0.03900
3964.70719,0.03911
3962.64760,0.03898
3960.58801,0.03895
3958.52842,0.03890
3956.46883,0.03893
3954.40924,0.03887
3952.34966,0.03834
3950.29007,0.03805
3948.23048,0.03852
3946.17089,0.03899
3944.11130,0.03894
3942.05172,0.03881
3939.99213,0.03902
3937.93254,0.03926
3935.87295,0.03902
3933.81336,0.03826
3931.75377,0.03752
3929.69419,0.03733
3927.63460,0.03734
3925.57501,0.03741
3923.51542,0.03783
3921.45583,0.03844
3919.39625,0.03861
3917.33666,0.03818
3915.27707,0.03787
3913.21748,0.03779
3911.15789,0.03777
3909.09831,0.03776
3907.03872,0.03757
3904.97913,0.03736
3902.91954,0.03739
3900.85995,0.03729
3898.80036,0.03717
3896.74078,0.03733
3894.68119,0.03735
3892.62160,0.03696
3890.56201,0.03681
3888.50242,0.03744
3886.44284,0.03809
3884.38325,0.03768
3882.32366,0.03662
3880.26407,0.03620
3878.20448,0.03635
3876.14489,0.03628
3874.08531,0.03654
3872.02572,0.03718
3869.96613,0.03714
3867.90654,0.03711
3865.84695,0.03740
3863.78737,0.03758
3861.72778,0.03777
3859.66819,0.03780
3857.60860,0.03767
3855.54901,0.03756
3853.48943,0.03744
3851.42984,0.03764
3849.37025,0.03797
3847.31066,0.03780
3845.25107,0.03763
3843.19148,0.03802
3841.13190,0.03825
3839.07231,0.03775
3837.01272,0.03674
3834.95313,0.03603
3832.89354,0.03624
3830.83396,0.03690
3828.77437,0.03718
3826.71478,0.03712
3824.65519,0.03707
3822.59560,0.03708
3820.53601,0.03700
3818.47643,0.03667
3816.41684,0.03629
3814.35725,0.03611
3812.29766,0.03655
3810.23807,0.03759
3808.17849,0.03817
3806.11890,0.03753
3804.05931,0.03671
3801.99972,0.03626
3799.94013,0.03613
3797.88055,0.03609
3795.82096,0.03600
3793.76137,0.03605
3791.70178,0.03620
3789.64219,0.03671
3787.58260,0.03748
3785.52302,0.03770
3783.46343,0.03738
3781.40384,0.03696
3779.34425,0.03681
3777.28466,0.03696
3775.22508,0.03669
3773.16549,0.03614
3771.10590,0.03605
3769.04631,0.03672
3766.98672,0.03723
3764.92713,0.03697
3762.86755,0.03709
3760.80796,0.03739
3758.74837,0.03660
3756.68878,0.03577
3754.62919,0.03587
3752.56961,0.03582
3750.51002,0.03528
3748.45043,0.03517
3746.39084,0.03546
3744.33125,0.03584
3742.27167,0.03630
3740.21208,0.03638
3738.15249,0.03594
3736.09290,0.03551
3734.03331,0.03543
3731.97372,0.03538
3729.91414,0.03483
3727.85455,0.03411
3725.79496,0.03430
3723.73537,0.03527
3721.67578,0.03555
3719.61620,0.03488
3717.55661,0.03458
3715.49702,0.03495
3713.43743,0.03522
3711.37784,0.03535
3709.31825,0.03570
3707.25867,0.03571
3705.19908,0.03533
3703.13949,0.03487
3701.07990,0.03471
3699.02031,0.03525
3696.96073,0.03588
3694.90114,0.03605
3692.84155,0.03575
3690.78196,0.03493
3688.72237,0.03451
3686.66279,0.03523
3684.60320,0.03598
3682.54361,0.03644
3680.48402,0.03657
3678.42443,0.03618
3676.36484,0.03562
3674.30526,0.03527
3672.24567,0.03503
3670.18608,0.03474
3668.12649,0.03468
3666.06690,0.03488
3664.00732,0.03525
3661.94773,0.03576
3659.88814,0.03607
3657.82855,0.03597
3655.76896,0.03571
3653.70937,0.03555
3651.64979,0.03540
3649.59020,0.03528
3647.53061,0.03521
3645.47102,0.03496
3643.41143,0.03474
3641.35185,0.03496
3639.29226,0.03557
3637.23267,0.03628
3635.17308,0.03658
3633.11349,0.03592
3631.05391,0.03467
3628.99432,0.03401
3626.93473,0.03480
3624.87514,0.03561
3622.81555,0.03560
3620.75596,0.03530
3618.69638,0.03526
3616.63679,0.03547
3614.57720,0.03557
3612.51761,0.03532
3610.45802,0.03512
3608.39844,0.03546
3606.33885,0.03597
3604.27926,0.03608
3602.21967,0.03598
3600.16008,0.03610
3598.10049,0.03598
3596.04091,0.03527
3593.98132,0.03441
3591.92173,0.03394
3589.86214,0.03398
3587.80255,0.03405
3585.74297,0.03400
3583.68338,0.03397
3581.62379,0.03359
3579.56420,0.03315
3577.50461,0.03352
3575.44503,0.03441
3573.38544,0.03489
3571.32585,0.03477
3569.26626,0.03447
3567.20667,0.03479
3565.14708,0.03538
3563.08750,0.03553
3561.02791,0.03567
3558.96832,0.03569
3556.90873,0.03524
3554.84914,0.03484
3552.78956,0.03471
3550.72997,0.03478
3548.67038,0.03526
3546.61079,0.03555
3544.55120,0.03501
3542.49161,0.03455
3540.43203,0.03513
3538.37244,0.03591
3536.31285,0.03563
3534.25326,0.03483
3532.19367,0.03450
3530.13409,0.03465
3528.07450,0.03509
3526.01491,0.03551
3523.95532,0.03555
3521.89573,0.03544
3519.83615,0.03551
3517.77656,0.03578
3515.71697,0.03616
3513.65738,0.03611
3511.59779,0.03531
3509.53820,0.03471
3507.47862,0.03519
3505.41903,0.03604
3503.35944,0.03639
3501.29985,0.03630
3499.24026,0.03562
3497.18068,0.03471
3495.12109,0.03450
3493.06150,0.03480
3491.00191,0.03507
3488.94232,0.03525
3486.88273,0.03530
3484.82315,0.03521
3482.76356,0.03493
3480.70397,0.03470
3478.64438,0.03496
3476.58479,0.03557
3474.52521,0.03603
3472.46562,0.03591
3470.40603,0.03540
3468.34644,0.03526
3466.28685,0.03562
3464.22727,0.03598
3462.16768,0.03601
3460.10809,0.03577
3458.04850,0.03550
3455.98891,0.03547
3453.92932,0.03546
3451.86974,0.03521
3449.81015,0.03528
3447.75056,0.03569
3445.69097,0.03599
3443.63138,0.03597
3441.57180,0.03585
3439.51221,0.03608
3437.45262,0.03629
3435.39303,0.03597
3433.33344,0.03559
3431.27385,0.03540
3429.21427,0.03509
3427.15468,0.03464
3425.09509,0.03457
3423.03550,0.03498
3420.97591,0.03530
3418.91633,0.03548
3416.85674,0.03547
3414.79715,0.03521
3412.73756,0.03521
3410.67797,0.03533
3408.61839,0.03530
3406.55880,0.03542
3404.49921,0.03568
3402.43962,0.03564
3400.38003,0.03541
3398.32044,0.03561
3396.26086,0.03605
3394.20127,0.03597
3392.14168,0.03561
3390.08209,0.03542
3388.02250,0.03546
3385.96292,0.03567
3383.90333,0.03562
3381.84374,0.03541
3379.78415,0.03534
3377.72456,0.03525
3375.66497,0.03504
3373.60539,0.03494
3371.54580,0.03527
3369.48621,0.03556
3367.42662,0.03521
3365.36703,0.03468
3363.30745,0.03449
3361.24786,0.03461
3359.18827,0.03478
3357.12868,0.03482
3355.06909,0.03484
3353.00951,0.03479
3350.94992,0.03478
3348.89033,0.03501
3346.83074,0.03506
3344.77115,0.03470
3342.71156,0.03449
3340.65198,0.03473
3338.59239,0.03508
3336.53280,0.03524
3334.47321,0.03541
3332.41362,0.03547
3330.35404,0.03498
3328.29445,0.03446
3326.23486,0.03459
3324.17527,0.03475
3322.11568,0.03455
3320.05609,0.03447
3317.99651,0.03446
3315.93692,0.03409
3313.87733,0.03371
3311.81774,0.03366
3309.75815,0.03381
3307.69857,0.03412
3305.63898,0.03422
3303.57939,0.03399
3301.51980,0.03407
3299.46021,0.03452
3297.40063,0.03451
3295.34104,0.03385
3293.28145,0.03350
3291.22186,0.03364
3289.16227,0.03380
3287.10268,0.03415
3285.04310,0.03447
3282.98351,0.03452
3280.92392,0.03428
3278.86433,0.03395
3276.80474,0.03392
3274.74516,0.03386
3272.68557,0.03355
3270.62598,0.03332
3268.56639,0.03307
3266.50680,0.03305
3264.44721,0.03338
3262.38763,0.03345
3260.32804,0.03332
3258.26845,0.03321
3256.20886,0.03309
3254.14927,0.03349
3252.08969,0.03438
3250.03010,0.03488
3247.97051,0.03452
3245.91092,0.03381
3243.85133,0.03337
3241.79175,0.03315
3239.73216,0.03317
3237.67257,0.03345
3235.61298,0.03354
3233.55339,0.03346
3231.49380,0.03351
3229.43422,0.03341
3227.37463,0.03309
3225.31504,0.03294
3223.25545,0.03291
3221.19586,0.03269
3219.13628,0.03257
3217.07669,0.03276
3215.01710,0.03276
3212.95751,0.03263
3210.89792,0.03272
3208.83833,0.03276
3206.77875,0.03288
3204.71916,0.03312
3202.65957,0.03335
3200.59998,0.03356
3198.54039,0.03346
3196.48081,0.03323
3194.42122,0.03311
3192.36163,0.03300
3190.30204,0.03285
3188.24245,0.03279
3186.18287,0.03271
3184.12328,0.03248
3182.06369,0.03233
3180.00410,0.03254
3177.94451,0.03318
3175.88492,0.03367
3173.82534,0.03359
3171.76575,0.03323
3169.70616,0.03277
3167.64657,0.03259
3165.58698,0.03280
3163.52740,0.03275
3161.46781,0.03264
3159.40822,0.03284
3157.34863,0.03265
3155.28904,0.03201
3153.22945,0.03168
3151.16987,0.03160
3149.11028,0.03154
3147.05069,0.03185
3144.99110,0.03224
3142.93151,0.03227
3140.87193,0.03208
3138.81234,0.03174
3136.75275,0.03159
3134.69316,0.03185
3132.63357,0.03206
3130.57399,0.03219
3128.51440,0.03246
3126.45481,0.03229
3124.39522,0.03178
3122.33563,0.03190
3120.27604,0.03261
3118.21646,0.03298
3116.15687,0.03305
3114.09728,0.03366
3112.03769,0.03464
3109.97810,0.03558
3107.91852,0.03692
3105.85893,0.03869
3103.79934,0.04012
3101.73975,0.04041
3099.68016,0.03959
3097.62057,0.03884
3095.56099,0.03887
3093.50140,0.03965
3091.44181,0.04135
3089.38222,0.04449
3087.32263,0.04931
3085.26305,0.05484
3083.20346,0.05923
3081.14387,0.06046
3079.08428,0.05810
3077.02469,0.05443
3074.96511,0.05169
3072.90552,0.05058
3070.84593,0.05113
3068.78634,0.05324
3066.72675,0.05724
3064.66716,0.06286
3062.60758,0.06836
3060.54799,0.07192
3058.48840,0.07245
3056.42881,0.06978
3054.36922,0.06510
3052.30964,0.06006
3050.25005,0.05564
3048.19046,0.05229
3046.13087,0.05035
3044.07128,0.04985
3042.01169,0.05062
3039.95211,0.05261
3037.89252,0.05608
3035.83293,0.06154
3033.77334,0.06971
3031.71375,0.08099
3029.65417,0.09464
3027.59458,0.10769
3025.53499,0.11553
3023.47540,0.11440
3021.41581,0.10423
3019.35623,0.08955
3017.29664,0.07574
3015.23705,0.06519
3013.17746,0.05793
3011.11787,0.05341
3009.05828,0.05116
3006.99870,0.05083
3004.93911,0.05193
3002.87952,0.05325
3000.81993,0.05345
2998.76034,0.05189
2996.70076,0.04886
2994.64117,0.04551
2992.58158,0.04284
2990.52199,0.04096
2988.46240,0.03974
2986.40281,0.03904
2984.34323,0.03862
2982.28364,0.03851
2980.22405,0.03865
2978.16446,0.03882
2976.10487,0.03882
2974.04529,0.03880
2971.98570,0.03902
2969.92611,0.03928
2967.86652,0.03980
2965.80693,0.04102
2963.74735,0.04236
2961.68776,0.04340
2959.62817,0.04438
2957.56858,0.04552
2955.50899,0.04705
2953.44940,0.04919
2951.38982,0.05178
2949.33023,0.05470
2947.27064,0.05814
2945.21105,0.06227
2943.15146,0.06715
2941.09188,0.07262
2939.03229,0.07852
2936.97270,0.08508
2934.91311,0.09254
2932.85352,0.10048
2930.79393,0.10840
2928.73435,0.11629
2926.67476,0.12343
2924.61517,0.12860
2922.55558,0.13127
2920.49599,0.13179
2918.43641,0.13102
2916.37682,0.12907
2914.31723,0.12568
2912.25764,0.12113
2910.19805,0.11583
2908.13847,0.11017
2906.07888,0.10457
2904.01929,0.09926
2901.95970,0.09412
2899.90011,0.08887
2897.84052,0.08380
2895.78094,0.07949
2893.72135,0.07592
2891.66176,0.07281
2889.60217,0.07025
2887.54258,0.06808
2885.48300,0.06592
2883.42341,0.06405
2881.36382,0.06275
2879.30423,0.06134
2877.24464,0.05948
2875.18505,0.05784
2873.12547,0.05653
2871.06588,0.05543
2869.00629,0.05490
2866.94670,0.05526
2864.88711,0.05640
2862.82753,0.05813
2860.76794,0.06040
2858.70835,0.06330
2856.64876,0.06691
2854.58917,0.07062
2852.52959,0.07360
2850.47000,0.07547
2848.41041,0.07586
2846.35082,0.07466
2844.29123,0.07194
2842.23164,0.06776
2840.17206,0.06263
2838.11247,0.05731
2836.05288,0.05247
2833.99329,0.04882
2831.93370,0.04650
2829.87412,0.04486
2827.81453,0.04353
2825.75494,0.04250
2823.69535,0.04169
2821.63576,0.04111
2819.57617,0.04063
2817.51659,0.04030
2815.45700,0.04022
2813.39741,0.04012
2811.33782,0.03996
2809.27823,0.03979
2807.21865,0.03960
2805.15906,0.03937
2803.09947,0.03901
2801.03988,0.03858
2798.98029,0.03833
2796.92071,0.03817
2794.86112,0.03796
2792.80153,0.03782
2790.74194,0.03774
2788.68235,0.03761
2786.62276,0.03740
2784.56318,0.03715
2782.50359,0.03702
2780.44400,0.03706
2778.38441,0.03698
2776.32482,0.03680
2774.26524,0.03670
2772.20565,0.03661
2770.14606,0.03657
2768.08647,0.03659
2766.02688,0.03647
2763.96729,0.03630
2761.90771,0.03626
2759.84812,0.03620
2757.78853,0.03586
2755.72894,0.03542
2753.66935,0.03525
2751.60977,0.03529
2749.55018,0.03525
2747.49059,0.03496
2745.43100,0.03453
2743.37141,0.03439
2741.31183,0.03467
2739.25224,0.03484
2737.19265,0.03473
2735.13306,0.03469
2733.07347,0.03480
2731.01388,0.03488
2728.95430,0.03484
2726.89471,0.03464
2724.83512,0.03453
2722.77553,0.03467
2720.71594,0.03470
2718.65636,0.03457
2716.59677,0.03460
2714.53718,0.03480
2712.47759,0.03489
2710.41800,0.03476
2708.35841,0.03454
2706.29883,0.03442
2704.23924,0.03440
2702.17965,0.03448
2700.12006,0.03464
2698.06047,0.03470
2696.00089,0.03462
2693.94130,0.03444
2691.88171,0.03424
2689.82212,0.03419
2687.76253,0.03435
2685.70295,0.03442
2683.64336,0.03426
2681.58377,0.03414
2679.52418,0.03411
2677.46459,0.03394
2675.40500,0.03379
2673.34542,0.03380
2671.28583,0.03384
2669.22624,0.03388
2667.16665,0.03389
2665.10706,0.03393
2663.04748,0.03412
2660.98789,0.03442
2658.92830,0.03462
2656.86871,0.03454
2654.80912,0.03429
2652.74953,0.03401
2650.68995,0.03388
2648.63036,0.03401
2646.57077,0.03425
2644.51118,0.03428
2642.45159,0.03398
2640.39201,0.03378
2638.33242,0.03395
2636.27283,0.03422
2634.21324,0.03424
2632.15365,0.03398
2630.09407,0.03374
2628.03448,0.03370
2625.97489,0.03352
2623.91530,0.03308
2621.85571,0.03280
2619.79612,0.03299
2617.73654,0.03336
2615.67695,0.03341
2613.61736,0.03325
2611.55777,0.03312
2609.49818,0.03298
2607.43860,0.03279
2605.37901,0.03257
2603.31942,0.03242
2601.25983,0.03241
2599.20024,0.03229
2597.14065,0.03217
2595.08107,0.03221
2593.02148,0.03215
2590.96189,0.03201
2588.90230,0.03175
2586.84271,0.03126
2584.78313,0.03096
2582.72354,0.03124
2580.66395,0.03162
2578.60436,0.03149
2576.54477,0.03122
2574.48519,0.03126
2572.42560,0.03123
2570.36601,0.03110
2568.30642,0.03141
2566.24683,0.03153
2564.18724,0.03096
2562.12766,0.03049
2560.06807,0.03060
2558.00848,0.03089
2555.94889,0.03099
2553.88930,0.03104
2551.82972,0.03111
2549.77013,0.03083
2547.71054,0.03022
2545.65095,0.03014
2543.59136,0.03065
2541.53177,0.03080
2539.47219,0.03042
2537.41260,0.03004
2535.35301,0.02997
2533.29342,0.03021
2531.23383,0.03059
2529.17425,0.03086
2527.11466,0.03074
2525.05507,0.03021
2522.99548,0.02974
2520.93589,0.02994
2518.87631,0.03048
2516.81672,0.03058
2514.75713,0.03021
2512.69754,0.02983
2510.63795,0.02974
2508.57836,0.03004
2506.51878,0.03012
2504.45919,0.03002
2502.39960,0.03031
2500.34001,0.03050
2498.28042,0.03022
2496.22084,0.02987
2494.16125,0.02984
2492.10166,0.02994
2490.04207,0.02975
2487.98248,0.02938
2485.92289,0.02929
2483.86331,0.02969
2481.80372,0.03034
2479.74413,0.03076
2477.68454,0.03070
2475.62495,0.03039
2473.56537,0.03015
2471.50578,0.02994
2469.44619,0.02957
2467.38660,0.02913
2465.32701,0.02903
2463.26743,0.02920
2461.20784,0.02926
2459.14825,0.02924
2457.08866,0.02911
2455.02907,0.02907
2452.96948,0.02936
2450.90990,0.02969
2448.85031,0.02981
2446.79072,0.02968
2444.73113,0.02942
2442.67154,0.02916
2440.61196,0.02887
2438.55237,0.02875
2436.49278,0.02891
2434.43319,0.02906
2432.37360,0.02904
2430.31401,0.02882
2428.25443,0.02835
2426.19484,0.02807
2424.13525,0.02829
2422.07566,0.02865
2420.01607,0.02860
2417.95649,0.02846
2415.89690,0.02853
2413.83731,0.02867
2411.77772,0.02886
2409.71813,0.02895
2407.65855,0.02901
2405.59896,0.02908
2403.53937,0.02878
2401.47978,0.02826
2399.42019,0.02813
2397.36060,0.02822
2395.30102,0.02819
2393.24143,0.02809
2391.18184,0.02790
2389.12225,0.02777
2387.06266,0.02798
2385.00308,0.02827
2382.94349,0.02834
2380.88390,0.02820
2378.82431,0.02795
2376.76472,0.02773
2374.70513,0.02770
2372.64555,0.02803
2370.58596,0.02860
2368.52637,0.02887
2366.46678,0.02880
2364.40719,0.02853
2362.34761,0.02813
2360.28802,0.02818
2358.22843,0.02875
2356.16884,0.02907
2354.10925,0.02946
2352.04967,0.03001
2349.99008,0.02990
2347.93049,0.02938
2345.87090,0.02912
2343.81131,0.02942
2341.75172,0.03015
2339.69214,0.03054
2337.63255,0.03030
2335.57296,0.02995
2333.51337,0.02967
2331.45378,0.02969
2329.39420,0.03000
2327.33461,0.03031
2325.27502,0.03063
2323.21543,0.03087
2321.15584,0.03077
2319.09625,0.03041
2317.03667,0.02986
2314.97708,0.02926
2312.91749,0.02883
2310.85790,0.02852
2308.79831,0.02833
2306.73873,0.02837
2304.67914,0.02848
2302.61955,0.02865
2300.55996,0.02878
2298.50037,0.02835
2296.44079,0.02767
2294.38120,0.02767
2292.32161,0.02836
2290.26202,0.02891
2288.20243,0.02864
2286.14284,0.02807
2284.08326,0.02791
2282.02367,0.02778
2279.96408,0.02752
2277.90449,0.02719
2275.84490,0.02668
2273.78532,0.02654
2271.72573,0.02708
2269.66614,0.02769
2267.60655,0.02765
2265.54696,0.02732
2263.48737,0.02727
2261.42779,0.02733
2259.36820,0.02710
2257.30861,0.02652
2255.24902,0.02610
2253.18943,0.02604
2251.12985,0.02606
2249.07026,0.02593
2247.01067,0.02575
2244.95108,0.02577
2242.89149,0.02580
2240.83191,0.02575
2238.77232,0.02564
2236.71273,0.02497
2234.65314,0.02381
2232.59355,0.02338
2230.53396,0.02381
2228.47438,0.02396
2226.41479,0.02380
2224.35520,0.02377
2222.29561,0.02369
2220.23602,0.02345
2218.17644,0.02379
2216.11685,0.02477
2214.05726,0.02462
2211.99767,0.02332
2209.93808,0.02257
2207.87849,0.02257
2205.81891,0.02329
2203.75932,0.02430
2201.69973,0.02419
2199.64014,0.02288
2197.58055,0.02172
2195.52097,0.02139
2193.46138,0.02185
2191.40179,0.02314
2189.34220,0.02429
2187.28261,0.02408
2185.22303,0.02315
2183.16344,0.02241
2181.10385,0.02210
2179.04426,0.02257
2176.98467,0.02292
2174.92508,0.02213
2172.86550,0.02129
2170.80591,0.02106
2168.74632,0.02140
2166.68673,0.02270
2164.62714,0.02396
2162.56756,0.02332
2160.50797,0.02052
2158.44838,0.01811
2156.38879,0.01783
2154.32920,0.01896
2152.26961,0.02050
2150.21003,0.02093
2148.15044,0.02012
2146.09085,0.01989
2144.03126,0.02054
2141.97167,0.02083
2139.91209,0.02067
2137.85250,0.02099
2135.79291,0.02117
2133.73332,0.02094
2131.67373,0.02154
2129.61415,0.02270
2127.55456,0.02327
2125.49497,0.02331
2123.43538,0.02324
2121.37579,0.02316
2119.31620,0.02304
2117.25662,0.02280
2115.19703,0.02267
2113.13744,0.02321
2111.07785,0.02399
2109.01826,0.02410
2106.95868,0.02340
2104.89909,0.02245
2102.83950,0.02199
2100.77991,0.02235
2098.72032,0.02302
2096.66073,0.02321
2094.60115,0.02288
2092.54156,0.02260
2090.48197,0.02268
2088.42238,0.02319
2086.36279,0.02373
2084.30321,0.02370
2082.24362,0.02327
2080.18403,0.02277
2078.12444,0.02256
2076.06485,0.02310
2074.00527,0.02358
2071.94568,0.02324
2069.88609,0.02272
2067.82650,0.02254
2065.76691,0.02254
2063.70732,0.02215
2061.64774,0.02129
2059.58815,0.02082
2057.52856,0.02117
2055.46897,0.02206
2053.40938,0.02273
2051.34980,0.02227
2049.29021,0.02127
2047.23062,0.02124
2045.17103,0.02194
2043.11144,0.02192
2041.05185,0.02104
2038.99227,0.02042
2036.93268,0.02016
2034.87309,0.01979
2032.81350,0.01967
2030.75391,0.01972
2028.69433,0.01940
2026.63474,0.01878
2024.57515,0.01864
2022.51556,0.01895
2020.45597,0.01920
2018.39639,0.01926
2016.33680,0.01856
2014.27721,0.01792
2012.21762,0.01849
2010.15803,0.01955
2008.09844,0.02008
2006.03886,0.01994
2003.97927,0.01967
2001.91968,0.01977
1999.86009,0.02006
1997.80050,0.02020
1995.74092,0.02045
1993.68133,0.02101
1991.62174,0.02176
1989.56215,0.02215
1987.50256,0.02172
1985.44297,0.02104
1983.38339,0.02095
1981.32380,0.02079
1979.26421,0.01952
1977.20462,0.01858
1975.14503,0.01936
1973.08545,0.02034
1971.02586,0.02036
1968.96627,0.02028
1966.90668,0.02099
1964.84709,0.02193
1962.78751,0.02216
1960.72792,0.02170
1958.66833,0.02119
1956.60874,0.02156
1954.54915,0.02290
1952.48956,0.02412
1950.42998,0.02499
1948.37039,0.02604
1946.31080,0.02699
1944.25121,0.02760
1942.19162,0.02800
1940.13204,0.02785
1938.07245,0.02706
1936.01286,0.02606
1933.95327,0.02531
1931.89368,0.02470
1929.83409,0.02395
1927.77451,0.02332
1925.71492,0.02306
1923.65533,0.02311
1921.59574,0.02311
1919.53615,0.02271
1917.47657,0.02205
1915.41698,0.02170
1913.35739,0.02187
1911.29780,0.02218
1909.23821,0.02240
1907.17863,0.02246
1905.11904,0.02216
1903.05945,0.02209
1900.99986,0.02273
1898.94027,0.02323
1896.88068,0.02357
1894.82110,0.02417
1892.76151,0.02443
1890.70192,0.02427
1888.64233,0.02448
1886.58274,0.02510
1884.52316,0.02557
1882.46357,0.02579
1880.40398,0.02614
1878.34439,0.02667
1876.28480,0.02706
1874.22521,0.02731
1872.16563,0.02765
1870.10604,0.02805
1868.04645,0.02824
1865.98686,0.02800
1863.92727,0.02728
1861.86769,0.02628
1859.80810,0.02520
1857.74851,0.02429
1855.68892,0.02373
1853.62933,0.02356
1851.56975,0.02351
1849.51016,0.02326
1847.45057,0.02297
1845.39098,0.02289
1843.33139,0.02290
1841.27180,0.02272
1839.21222,0.02249
1837.15263,0.02242
1835.09304,0.02244
1833.03345,0.02258
1830.97386,0.02302
1828.91428,0.02361
1826.85469,0.02391
1824.79510,0.02409
1822.73551,0.02435
1820.67592,0.02465
1818.61633,0.02496
1816.55675,0.02531
1814.49716,0.02579
1812.43757,0.02658
1810.37798,0.02738
1808.31839,0.02785
1806.25881,0.02821
1804.19922,0.02865
1802.13963,0.02908
1800.08004,0.02915
1798.02045,0.02869
1795.96087,0.02796
1793.90128,0.02721
1791.84169,0.02650
1789.78210,0.02586
1787.72251,0.02539
1785.66292,0.02501
1783.60334,0.02476
1781.54375,0.02462
1779.48416,0.02454
1777.42457,0.02471
1775.36498,0.02501
1773.30540,0.02496
1771.24581,0.02470
1769.18622,0.02476
1767.12663,0.02492
1765.06704,0.02490
1763.00745,0.02491
1760.94787,0.02520
1758.88828,0.02565
1756.82869,0.02610
1754.76910,0.02652
1752.70951,0.02706
1750.64993,0.02779
1748.59034,0.02842
1746.53075,0.02873
1744.47116,0.02888
1742.41157,0.02898
1740.35199,0.02901
1738.29240,0.02889
1736.23281,0.02861
1734.17322,0.02818
1732.11363,0.02791
1730.05404,0.02789
1727.99446,0.02782
1725.93487,0.02755
1723.87528,0.02719
1721.81569,0.02696
1719.75610,0.02684
1717.69652,0.02666
1715.63693,0.02641
1713.57734,0.02620
1711.51775,0.02605
1709.45816,0.02588
1707.39857,0.02570
1705.33899,0.02568
1703.27940,0.02574
1701.21981,0.02566
1699.16022,0.02546
1697.10063,0.02519
1695.04105,0.02498
1692.98146,0.02500
1690.92187,0.02503
1688.86228,0.02491
1686.80269,0.02477
1684.74311,0.02497
1682.68352,0.02552
1680.62393,0.02566
1678.56434,0.02550
1676.50475,0.02552
1674.44516,0.02570
1672.38558,0.02582
1670.32599,0.02592
1668.26640,0.02589
1666.20681,0.02565
1664.14722,0.02536
1662.08764,0.02513
1660.02805,0.02495
1657.96846,0.02478
1655.90887,0.02460
1653.84928,0.02433
1651.78969,0.02400
1649.73011,0.02374
1647.67052,0.02352
1645.61093,0.02340
1643.55134,0.02335
1641.49175,0.02327
1639.43217,0.02315
1637.37258,0.02301
1635.31299,0.02287
1633.25340,0.02273
1631.19381,0.02274
1629.13423,0.02295
1627.07464,0.02318
1625.01505,0.02329
1622.95546,0.02335
1620.89587,0.02340
1618.83628,0.02353
1616.77670,0.02405
1614.71711,0.02490
1612.65752,0.02609
1610.59793,0.02856
1608.53834,0.03355
1606.47876,0.04193
1604.41917,0.05284
1602.35958,0.06253
1600.29999,0.06552
1598.24040,0.06031
1596.18081,0.05113
1594.12123,0.04293
1592.06164,0.03753
1590.00205,0.03449
1587.94246,0.03378
1585.88287,0.03563
1583.82329,0.03807
1581.76370,0.03781
1579.70411,0.03462
1577.64452,0.03083
1575.58493,0.02783
1573.52535,0.02608
1571.46576,0.02500
1569.40617,0.02413
1567.34658,0.02364
1565.28699,0.02346
1563.22740,0.02324
1561.16782,0.02291
1559.10823,0.02286
1557.04864,0.02321
1554.98905,0.02338
1552.92946,0.02353
1550.86988,0.02382
1548.81029,0.02419
1546.75070,0.02458
1544.69111,0.02500
1542.63152,0.02519
1540.57193,0.02497
1538.51235,0.02454
1536.45276,0.02416
1534.39317,0.02368
1532.33358,0.02306
1530.27399,0.02256
1528.21441,0.02215
1526.15482,0.02178
1524.09523,0.02152
1522.03564,0.02137
1519.97605,0.02133
1517.91647,0.02140
1515.85688,0.02143
1513.79729,0.02148
1511.73770,0.02168
1509.67811,0.02191
1507.61852,0.02229
1505.55894,0.02334
1503.49935,0.02505
1501.43976,0.02821
1499.38017,0.03624
1497.32058,0.05721
1495.26100,0.09196
1493.20141,0.11910
1491.14182,0.11981
1489.08223,0.09494
1487.02264,0.06850
1484.96305,0.05230
1482.90347,0.04242
1480.84388,0.03612
1478.78429,0.03242
1476.72470,0.03029
1474.66511,0.02892
1472.60553,0.02805
1470.54594,0.02766
1468.48635,0.02757
1466.42676,0.02768
1464.36717,0.02828
1462.30759,0.02970
1460.24800,0.03288
1458.18841,0.04403
1456.12882,0.07312
1454.06923,0.10563
1452.00964,0.12394
1449.95006,0.12327
1447.89047,0.10991
1445.83088,0.09593
1443.77129,0.08466
1441.71170,0.07468
1439.65212,0.06628
1437.59253,0.05848
1435.53294,0.05054
1433.47335,0.04438
1431.41376,0.03978
1429.35417,0.03601
1427.29459,0.03336
1425.23500,0.03158
1423.17541,0.03035
1421.11582,0.02950
1419.05623,0.02870
1416.99665,0.02800
1414.93706,0.02753
1412.87747,0.02727
1410.81788,0.02721
1408.75829,0.02707
1406.69871,0.02672
1404.63912,0.02637
1402.57953,0.02628
1400.51994,0.02635
1398.46035,0.02642
1396.40076,0.02658
1394.34118,0.02709
1392.28159,0.02793
1390.22200,0.02898
1388.16241,0.03035
1386.10282,0.03207
1384.04324,0.03369
1381.98365,0.03500
1379.92406,0.03626
1377.86447,0.03763
1375.80488,0.03897
1373.74529,0.03999
1371.68571,0.04039
1369.62612,0.04022
1367.56653,0.03985
1365.50694,0.03953
1363.44735,0.03920
1361.38777,0.03870
1359.32818,0.03801
1357.26859,0.03732
1355.20900,0.03686
1353.14941,0.03667
1351.08983,0.03661
1349.03024,0.03649
1346.97065,0.03611
1344.91106,0.03547
1342.85147,0.03476
1340.79188,0.03403
1338.73230,0.03346
1336.67271,0.03339
1334.61312,0.03387
1332.55353,0.03473
1330.49394,0.03563
1328.43436,0.03614
1326.37477,0.03598
1324.31518,0.03535
1322.25559,0.03473
1320.19600,0.03445
1318.13641,0.03453
1316.07683,0.03482
1314.01724,0.03522
1311.95765,0.03547
1309.89806,0.03523
1307.83847,0.03463
1305.77889,0.03403
1303.71930,0.03344
1301.65971,0.03281
1299.60012,0.03219
1297.54053,0.03162
1295.48095,0.03123
1293.42136,0.03103
1291.36177,0.03084
1289.30218,0.03052
1287.24259,0.03019
1285.18300,0.03003
1283.12342,0.02993
1281.06383,0.02977
1279.00424,0.02950
1276.94465,0.02904
1274.88506,0.02846
1272.82548,0.02781
1270.76589,0.02719
1268.70630,0.02672
1266.64671,0.02635
1264.58712,0.02593
1262.52753,0.02557
1260.46795,0.02547
1258.40836,0.02549
1256.34877,0.02546
1254.28918,0.02543
1252.22959,0.02549
1250.17001,0.02558
1248.11042,0.02563
1246.05083,0.02567
1243.99124,0.02564
1241.93165,0.02549
1239.87207,0.02526
1237.81248,0.02509
1235.75289,0.02502
1233.69330,0.02496
1231.63371,0.02482
1229.57412,0.02470
1227.51454,0.02464
1225.45495,0.02463
1223.39536,0.02462
1221.33577,0.02461
1219.27618,0.02462
1217.21660,0.02464
1215.15701,0.02466
1213.09742,0.02474
1211.03783,0.02497
1208.97824,0.02541
1206.91865,0.02602
1204.85907,0.02677
1202.79948,0.02755
1200.73989,0.02827
1198.68030,0.02885
1196.62071,0.02916
1194.56113,0.02930
1192.50154,0.02943
1190.44195,0.02960
1188.38236,0.02999
1186.32277,0.03104
1184.26319,0.03283
1182.20360,0.03446
1180.14401,0.03458
1178.08442,0.03276
1176.02483,0.03015
1173.96524,0.02810
1171.90566,0.02684
1169.84607,0.02602
1167.78648,0.02561
1165.72689,0.02560
1163.66730,0.02587
1161.60772,0.02670
1159.54813,0.02858
1157.48854,0.03127
1155.42895,0.03350
1153.36936,0.03376
1151.30977,0.03173
1149.25019,0.02876
1147.19060,0.02635
1145.13101,0.02478
1143.07142,0.02369
1141.01183,0.02288
1138.95225,0.02223
1136.89266,0.02176
1134.83307,0.02153
1132.77348,0.02131
1130.71389,0.02103
1128.65431,0.02090
1126.59472,0.02095
1124.53513,0.02097
1122.47554,0.02102
1120.41595,0.02132
1118.35636,0.02184
1116.29678,0.02244
1114.23719,0.02299
1112.17760,0.02326
1110.11801,0.02318
1108.05842,0.02293
1105.99884,0.02274
1103.93925,0.02267
1101.87966,0.02278
1099.82007,0.02300
1097.76048,0.02318
1095.70089,0.02336
1093.64131,0.02362
1091.58172,0.02396
1089.52213,0.02441
1087.46254,0.02504
1085.40295,0.02591
1083.34337,0.02701
1081.28378,0.02822
1079.22419,0.02942
1077.16460,0.03078
1075.10501,0.03261
1073.04543,0.03481
1070.98584,0.03678
1068.92625,0.03784
1066.86666,0.03763
1064.80707,0.03622
1062.74748,0.03414
1060.68790,0.03209
1058.62831,0.03048
1056.56872,0.02925
1054.50913,0.02820
1052.44954,0.02726
1050.38996,0.02646
1048.33037,0.02578
1046.27078,0.02525
1044.21119,0.02489
1042.15160,0.02464
1040.09201,0.02483
1038.03243,0.02626
1035.97284,0.02988
1033.91325,0.03627
1031.85366,0.04435
1029.79407,0.05145
1027.73449,0.05472
1025.67490,0.05293
1023.61531,0.04788
1021.55572,0.04265
1019.49613,0.03864
1017.43655,0.03568
1015.37696,0.03348
1013.31737,0.03189
1011.25778,0.03066
1009.19819,0.02981
1007.13860,0.02968
1005.07902,0.03019
1003.01943,0.03038
1000.95984,0.02935
998.90025,0.02752
996.84066,0.02603
994.78108,0.02524
992.72149,0.02491
990.66190,0.02493
988.60231,0.02528
986.54272,0.02584
984.48313,0.02658
982.42355,0.02738
980.36396,0.02785
978.30437,0.02776
976.24478,0.02722
974.18519,0.02663
972.12561,0.02646
970.06602,0.02694
968.00643,0.02782
965.94684,0.02865
963.88725,0.02899
961.82767,0.02847
959.76808,0.02720
957.70849,0.02582
955.64890,0.02473
953.58931,0.02402
951.52972,0.02373
949.47014,0.02384
947.41055,0.02421
945.35096,0.02458
943.29137,0.02474
941.23178,0.02454
939.17220,0.02394
937.11261,0.02316
935.05302,0.02229
932.99343,0.02138
930.93384,0.02060
928.87425,0.02014
926.81467,0.02000
924.75508,0.02010
922.69549,0.02046
920.63590,0.02108
918.57631,0.02203
916.51673,0.02357
914.45714,0.02601
912.39755,0.02939
910.33796,0.03325
908.27837,0.03661
906.21879,0.03824
904.15920,0.03736
902.09961,0.03423
900.04002,0.03017
897.98043,0.02646
895.92084,0.02369
893.86126,0.02194
891.80167,0.02089
889.74208,0.02011
887.68249,0.01940
885.62290,0.01886
883.56332,0.01854
881.50373,0.01831
879.44414,0.01794
877.38455,0.01742
875.32496,0.01702
873.26537,0.01686
871.20579,0.01674
869.14620,0.01655
867.08661,0.01632
865.02702,0.01609
862.96743,0.01587
860.90785,0.01582
858.84826,0.01591
856.78867,0.01596
854.72908,0.01610
852.66949,0.01656
850.60991,0.01737
848.55032,0.01848
846.49073,0.01987
844.43114,0.02122
842.37155,0.02195
840.31196,0.02177
838.25238,0.02080
836.19279,0.01931
834.13320,0.01767
832.07361,0.01624
830.01402,0.01522
827.95444,0.01464
825.89485,0.01430
823.83526,0.01405
821.77567,0.01384
819.71608,0.01372
817.65649,0.01376
815.59691,0.01379
813.53732,0.01372
811.47773,0.01367
809.41814,0.01368
807.35855,0.01372
805.29897,0.01376
803.23938,0.01383
801.17979,0.01400
799.12020,0.01426
797.06061,0.01468
795.00103,0.01532
792.94144,0.01614
790.88185,0.01715
788.82226,0.01839
786.76267,0.01983
784.70308,0.02138
782.64350,0.02308
780.58391,0.02541
778.52432,0.02870
776.46473,0.03290
774.40514,0.03806
772.34556,0.04431
770.28597,0.05157
768.22638,0.05944
766.16679,0.06740
764.10720,0.07551
762.04761,0.08413
759.98803,0.09292
757.92844,0.10083
755.86885,0.10638
753.80926,0.10882
751.74967,0.10926
749.69009,0.10925
747.63050,0.10821
745.57091,0.10352
743.51132,0.09375
741.45173,0.08066
739.39215,0.06729
737.33256,0.05537
735.27297,0.04490
733.21338,0.03560
731.15379,0.02804
729.09420,0.02284
727.03462,0.01968
724.97503,0.01773
722.91544,0.01649
720.85585,0.01586
718.79626,0.01567
716.73668,0.01603
714.67709,0.01748
712.61750,0.02097
710.55791,0.02825
708.49832,0.04159
706.43873,0.06293
704.37915,0.09335
702.31956,0.13250
700.25997,0.17860
698.20038,0.22869
696.14079,0.27488
694.08121,0.29697
692.02162,0.27863
689.96203,0.23368
687.90244,0.18735
685.84285,0.15091
683.78327,0.12430
681.72368,0.10496
679.66409,0.09116
677.60450,0.08141
675.54491,0.07428
673.48532,0.06883
671.42574,0.06460
669.36615,0.06055
667.30656,0.05563
665.24697,0.05141
663.18738,0.04782
661.12780,0.04407
659.06821,0.04053
657.00862,0.03755
654.94903,0.03511
652.88944,0.03304
650.82985,0.03128
648.77027,0.02984
646.71068,0.02865
644.65109,0.02759
642.59150,0.02690
640.53191,0.02672
638.47233,0.02683
636.41274,0.02723
634.35315,0.02792
632.29356,0.02857
630.23397,0.02903
628.17439,0.02928
626.11480,0.02934
624.05521,0.02950
621.99562,0.02983
619.93603,0.02971
617.87644,0.02882
615.81686,0.02777
613.75727,0.02699
611.69768,0.02629
609.63809,0.02552
607.57850,0.02488
605.51892,0.02450
603.45933,0.02432
601.39974,0.02423
599.34015,0.02412
597.28056,0.02409
595.22097,0.02432
593.16139,0.02475
591.10180,0.02525
589.04221,0.02561
586.98262,0.02568
584.92303,0.02581
582.86345,0.02638
580.80386,0.02733
578.74427,0.02842
576.68468,0.02990
574.62509,0.03191
572.56551,0.03404
570.50592,0.03628
568.44633,0.03871
566.38674,0.04109
564.32715,0.04314
562.26756,0.04497
560.20798,0.04687
558.14839,0.04872
556.08880,0.05064
554.02921,0.05305
551.96962,0.05570
549.91004,0.05856
547.85045,0.06227
545.79086,0.06696
543.73127,0.07238
541.67168,0.07844
539.61209,0.08403
537.55251,0.08684
535.49292,0.08552
533.43333,0.08059
531.37374,0.07342
529.31415,0.06550
527.25457,0.05800
525.19498,0.05152
523.13539,0.04635
521.07580,0.04252
519.01621,0.03980
516.95663,0.03774
514.89704,0.03596
512.83745,0.03418
510.77786,0.03236
508.71827,0.03069
506.65868,0.02927
504.59910,0.02798
502.53951,0.02681
500.47992,0.02577
498.42033,0.02480
496.36074,0.02396
494.30116,0.02324
492.24157,0.02250
490.18198,0.02179
488.12239,0.02128
486.06280,0.02082
484.00321,0.02026
481.94363,0.01979
479.88404,0.01951
477.82445,0.01914
475.76486,0.01869
473.70527,0.01832
471.64569,0.01791
469.58610,0.01761
467.52651,0.01750
465.46692,0.01721
463.40733,0.01683
461.34775,0.01658
459.28816,0.01635
457.22857,0.01603
455.16898,0.01580
453.10939,0.01572
451.04980,0.01550
448.99022,0.01502
446.93063,0.01472
444.87104,0.01490
442.81145,0.01502
440.75186,0.01476
438.69228,0.01443
436.63269,0.01405
434.57310,0.01358
432.51351,0.01313
430.45392,0.01286
428.39433,0.01292
426.33475,0.01285
424.27516,0.01227
422.21557,0.01178
420.15598,0.01195
418.09639,0.01237
416.03681,0.01236
413.97722,0.01239
411.91763,0.01292
409.85804,0.01331
407.79845,0.01337
405.73887,0.01341
403.67928,0.01302
401.61969,0.01200
399.56010,0.01112
