3997.66060,0.00628
3995.60101,0.00677
3993.54142,0.00742
3991.48183,0.00766
3989.42224,0.00732
3987.36265,0.00674
3985.30307,0.00613
3983.24348,0.00588
3981.18389,0.00633
3979.12430,0.00702
3977.06471,0.00725
3975.00513,0.00662
3972.94554,0.00584
3970.88595,0.00591
3968.82636,0.00686
3966.76677,0.00774
3964.70719,0.00768
3962.64760,0.00697
3960.58801,0.00628
3958.52842,0.00605
3956.46883,0.00628
3954.40924,0.00631
3952.34966,0.00611
3950.29007,0.00623
3948.23048,0.00623
3946.17089,0.00574
3944.11130,0.00539
3942.05172,0.00548
3939.99213,0.00573
3937.93254,0.00562
3935.87295,0.00540
3933.81336,0.00582
3931.75377,0.00660
3929.69419,0.00687
3927.63460,0.00650
3925.57501,0.00601
3923.51542,0.00575
3921.45583,0.00571
3919.39625,0.00575
3917.33666,0.00572
3915.27707,0.00589
3913.21748,0.00621
3911.15789,0.00609
3909.09831,0.00557
3907.03872,0.00530
3904.97913,0.00561
3902.91954,0.00608
3900.85995,0.00609
3898.80036,0.00594
3896.74078,0.00597
3894.68119,0.00603
3892.62160,0.00600
3890.56201,0.00586
3888.50242,0.00592
3886.44284,0.00631
3884.38325,0.00646
3882.32366,0.00628
3880.26407,0.00596
3878.20448,0.00558
3876.14489,0.00545
3874.08531,0.00583
3872.02572,0.00641
3869.96613,0.00660
3867.90654,0.00655
3865.84695,0.00645
3863.78737,0.00643
3861.72778,0.00676
3859.66819,0.00700
3857.60860,0.00695
3855.54901,0.00672
3853.48943,0.00643
3851.42984,0.00632
3849.37025,0.00596
3847.31066,0.00518
3845.25107,0.00446
3843.19148,0.00453
3841.13190,0.00513
3839.07231,0.00502
3837.01272,0.00429
3834.95313,0.00434
3832.89354,0.00514
3830.83396,0.00604
3828.77437,0.00652
3826.71478,0.00625
3824.65519,0.00593
3822.59560,0.00609
3820.53601,0.00634
3818.47643,0.00653
3816.41684,0.00654
3814.35725,0.00621
3812.29766,0.00593
3810.23807,0.00570
3808.17849,0.00541
3806.11890,0.00545
3804.05931,0.00572
3801.99972,0.00582
3799.94013,0.00584
3797.88055,0.00599
3795.82096,0.00635
3793.76137,0.00647
3791.70178,0.00651
3789.64219,0.00675
3787.58260,0.00648
3785.52302,0.00575
3783.46343,0.00546
3781.40384,0.00578
3779.34425,0.00581
3777.28466,0.00536
3775.22508,0.00543
3773.16549,0.00580
3771.10590,0.00575
3769.04631,0.00546
3766.98672,0.00538
3764.92713,0.00539
3762.86755,0.00540
3760.80796,0.00531
3758.74837,0.00497
3756.68878,0.00482
3754.62919,0.00480
3752.56961,0.00469
3750.51002,0.00506
3748.45043,0.00574
3746.39084,0.00576
3744.33125,0.00505
3742.27167,0.00495
3740.21208,0.00559
3738.15249,0.00540
3736.09290,0.00439
3734.03331,0.00398
3731.97372,0.00402
3729.91414,0.00442
3727.85455,0.00483
3725.79496,0.00430
3723.73537,0.00371
3721.67578,0.00418
3719.61620,0.00469
3717.55661,0.00480
3715.49702,0.00509
3713.43743,0.00517
3711.37784,0.00491
3709.31825,0.00467
3707.25867,0.00455
3705.19908,0.00496
3703.13949,0.00546
3701.07990,0.00552
3699.02031,0.00516
3696.96073,0.00450
3694.90114,0.00419
3692.84155,0.00449
3690.78196,0.00492
3688.72237,0.00526
3686.66279,0.00593
3684.60320,0.00665
3682.54361,0.00667
3680.48402,0.00644
3678.42443,0.00671
3676.36484,0.00654
3674.30526,0.00529
3672.24567,0.00492
3670.18608,0.00599
3668.12649,0.00730
3666.06690,0.00782
3664.00732,0.00767
3661.94773,0.00730
3659.88814,0.00705
3657.82855,0.00687
3655.76896,0.00700
3653.70937,0.00756
3651.64979,0.00804
3649.59020,0.00799
3647.53061,0.00766
3645.47102,0.00774
3643.41143,0.00809
3641.35185,0.00868
3639.29226,0.00919
3637.23267,0.00907
3635.17308,0.00875
3633.11349,0.00889
3631.05391,0.00920
3628.99432,0.00933
3626.93473,0.00920
3624.87514,0.00867
3622.81555,0.00829
3620.75596,0.00871
3618.69638,0.00928
3616.63679,0.00945
3614.57720,0.01005
3612.51761,0.01083
3610.45802,0.01085
3608.39844,0.01022
3606.33885,0.00990
3604.27926,0.01020
3602.21967,0.01050
3600.16008,0.01077
3598.10049,0.01114
3596.04091,0.01146
3593.98132,0.01214
3591.92173,0.01292
3589.86214,0.01301
3587.80255,0.01263
3585.74297,0.01254
3583.68338,0.01299
3581.62379,0.01339
3579.56420,0.01353
3577.50461,0.01355
3575.44503,0.01322
3573.38544,0.01220
3571.32585,0.01139
3569.26626,0.01205
3567.20667,0.01358
3565.14708,0.01423
3563.08750,0.01415
3561.02791,0.01445
3558.96832,0.01516
3556.90873,0.01575
3554.84914,0.01602
3552.78956,0.01602
3550.72997,0.01624
3548.67038,0.01689
3546.61079,0.01709
3544.55120,0.01646
3542.49161,0.01566
3540.43203,0.01527
3538.37244,0.01552
3536.31285,0.01605
3534.25326,0.01631
3532.19367,0.01642
3530.13409,0.01670
3528.07450,0.01713
3526.01491,0.01732
3523.95532,0.01725
3521.89573,0.01729
3519.83615,0.01750
3517.77656,0.01737
3515.71697,0.01695
3513.65738,0.01701
3511.59779,0.01737
3509.53820,0.01759
3507.47862,0.01785
3505.41903,0.01781
3503.35944,0.01736
3501.29985,0.01686
3499.24026,0.01674
3497.18068,0.01688
3495.12109,0.01699
3493.06150,0.01736
3491.00191,0.01762
3488.94232,0.01711
3486.88273,0.01649
3484.82315,0.01657
3482.76356,0.01713
3480.70397,0.01748
3478.64438,0.01761
3476.58479,0.01770
3474.52521,0.01757
3472.46562,0.01739
3470.40603,0.01752
3468.34644,0.01788
3466.28685,0.01785
3464.22727,0.01738
3462.16768,0.01752
3460.10809,0.01837
3458.04850,0.01868
3455.98891,0.01798
3453.92932,0.01715
3451.86974,0.01704
3449.81015,0.01754
3447.75056,0.01781
3445.69097,0.01775
3443.63138,0.01791
3441.57180,0.01816
3439.51221,0.01823
3437.45262,0.01805
3435.39303,0.01773
3433.33344,0.01767
3431.27385,0.01776
3429.21427,0.01767
3427.15468,0.01756
3425.09509,0.01739
3423.03550,0.01688
3420.97591,0.01656
3418.91633,0.01691
3416.85674,0.01747
3414.79715,0.01782
3412.73756,0.01806
3410.67797,0.01820
3408.61839,0.01815
3406.55880,0.01812
3404.49921,0.01808
3402.43962,0.01794
3400.38003,0.01794
3398.32044,0.01801
3396.26086,0.01817
3394.20127,0.01827
3392.14168,0.01806
3390.08209,0.01751
3388.02250,0.01709
3385.96292,0.01709
3383.90333,0.01691
3381.84374,0.01657
3379.78415,0.01657
3377.72456,0.01669
3375.66497,0.01675
3373.60539,0.01669
3371.54580,0.01615
3369.48621,0.01538
3367.42662,0.01494
3365.36703,0.01478
3363.30745,0.01501
3361.24786,0.01600
3359.18827,0.01689
3357.12868,0.01671
3355.06909,0.01604
3353.00951,0.01558
3350.94992,0.01568
3348.89033,0.01599
3346.83074,0.01587
3344.77115,0.01528
3342.71156,0.01498
3340.65198,0.01533
3338.59239,0.01554
3336.53280,0.01518
3334.47321,0.01475
3332.41362,0.01455
3330.35404,0.01437
3328.29445,0.01432
3326.23486,0.01435
3324.17527,0.01428
3322.11568,0.01436
3320.05609,0.01458
3317.99651,0.01464
3315.93692,0.01476
3313.87733,0.01482
3311.81774,0.01436
3309.75815,0.01384
3307.69857,0.01378
3305.63898,0.01376
3303.57939,0.01362
3301.51980,0.01357
3299.46021,0.01331
3297.40063,0.01297
3295.34104,0.01288
3293.28145,0.01288
3291.22186,0.01276
3289.16227,0.01243
3287.10268,0.01226
3285.04310,0.01258
3282.98351,0.01274
3280.92392,0.01231
3278.86433,0.01197
3276.80474,0.01190
3274.74516,0.01187
3272.68557,0.01205
3270.62598,0.01239
3268.56639,0.01252
3266.50680,0.01222
3264.44721,0.01193
3262.38763,0.01212
3260.32804,0.01241
3258.26845,0.01241
3256.20886,0.01233
3254.14927,0.01209
3252.08969,0.01182
3250.03010,0.01192
3247.97051,0.01193
3245.91092,0.01159
3243.85133,0.01141
3241.79175,0.01144
3239.73216,0.01163
3237.67257,0.01178
3235.61298,0.01138
3233.55339,0.01101
3231.49380,0.01103
3229.43422,0.01124
3227.37463,0.01161
3225.31504,0.01152
3223.25545,0.01083
3221.19586,0.01053
3219.13628,0.01086
3217.07669,0.01094
3215.01710,0.01076
3212.95751,0.01069
3210.89792,0.01053
3208.83833,0.01047
3206.77875,0.01064
3204.71916,0.01072
3202.65957,0.01065
3200.59998,0.01064
3198.54039,0.01047
3196.48081,0.00994
3194.42122,0.00967
3192.36163,0.00995
3190.30204,0.01023
3188.24245,0.01009
3186.18287,0.01001
3184.12328,0.01040
3182.06369,0.01065
3180.00410,0.01045
3177.94451,0.01040
3175.88492,0.01033
3173.82534,0.00988
3171.76575,0.00960
3169.70616,0.00950
3167.64657,0.00938
3165.58698,0.00945
3163.52740,0.00940
3161.46781,0.00918
3159.40822,0.00929
3157.34863,0.00967
3155.28904,0.01005
3153.22945,0.01002
3151.16987,0.00936
3149.11028,0.00875
3147.05069,0.00865
3144.99110,0.00896
3142.93151,0.00935
3140.87193,0.00945
3138.81234,0.00949
3136.75275,0.00946
3134.69316,0.00913
3132.63357,0.00895
3130.57399,0.00917
3128.51440,0.00947
3126.45481,0.00964
3124.39522,0.00970
3122.33563,0.00961
3120.27604,0.00935
3118.21646,0.00939
3116.15687,0.00976
3114.09728,0.00990
3112.03769,0.00984
3109.97810,0.00982
3107.91852,0.00988
3105.85893,0.00993
3103.79934,0.00983
3101.73975,0.00988
3099.68016,0.01047
3097.62057,0.01133
3095.56099,0.01192
3093.50140,0.01208
3091.44181,0.01242
3089.38222,0.01332
3087.32263,0.01451
3085.26305,0.01586
3083.20346,0.01726
3081.14387,0.01866
3079.08428,0.01991
3077.02469,0.02069
3074.96511,0.02104
3072.90552,0.02113
3070.84593,0.02091
3068.78634,0.02054
3066.72675,0.02008
3064.66716,0.01935
3062.60758,0.01857
3060.54799,0.01814
3058.48840,0.01812
3056.42881,0.01844
3054.36922,0.01937
3052.30964,0.02104
3050.25005,0.02293
3048.19046,0.02510
3046.13087,0.02822
3044.07128,0.03195
3042.01169,0.03546
3039.95211,0.03865
3037.89252,0.04156
3035.83293,0.04387
3033.77334,0.04586
3031.71375,0.04769
3029.65417,0.04904
3027.59458,0.05004
3025.53499,0.05118
3023.47540,0.05273
3021.41581,0.05451
3019.35623,0.05628
3017.29664,0.05828
3015.23705,0.06054
3013.17746,0.06273
3011.11787,0.06476
3009.05828,0.06663
3006.99870,0.06803
3004.93911,0.06885
3002.87952,0.06961
3000.81993,0.07087
2998.76034,0.07282
2996.70076,0.07555
2994.64117,0.07869
2992.58158,0.08167
2990.52199,0.08437
2988.46240,0.08698
2986.40281,0.08946
2984.34323,0.09131
2982.28364,0.09264
2980.22405,0.09438
2978.16446,0.09691
2976.10487,0.09985
2974.04529,0.10350
2971.98570,0.10824
2969.92611,0.11382
2967.86652,0.12053
2965.80693,0.12873
2963.74735,0.13814
2961.68776,0.14827
2959.62817,0.15871
2957.56858,0.16881
2955.50899,0.17747
2953.44940,0.18428
2951.38982,0.19008
2949.33023,0.19650
2947.27064,0.20500
2945.21105,0.21596
2943.15146,0.22873
2941.09188,0.24247
2939.03229,0.25715
2936.97270,0.27328
2934.91311,0.29067
2932.85352,0.30888
2930.79393,0.32796
2928.73435,0.34864
2926.67476,0.37188
2924.61517,0.39828
2922.55558,0.42836
2920.49599,0.46100
2918.43641,0.48842
2916.37682,0.49307
2914.31723,0.46244
2912.25764,0.41040
2910.19805,0.36188
2908.13847,0.32647
2906.07888,0.30072
2904.01929,0.27983
2901.95970,0.26133
2899.90011,0.24438
2897.84052,0.22838
2895.78094,0.21287
2893.72135,0.19799
2891.66176,0.18425
2889.60217,0.17179
2887.54258,0.16041
2885.48300,0.15015
2883.42341,0.14134
2881.36382,0.13426
2879.30423,0.12924
2877.24464,0.12677
2875.18505,0.12630
2873.12547,0.12619
2871.06588,0.12560
2869.00629,0.12578
2866.94670,0.12891
2864.88711,0.13573
2862.82753,0.14574
2860.76794,0.15849
2858.70835,0.17351
2856.64876,0.19162
2854.58917,0.21669
2852.52959,0.25239
2850.47000,0.28953
2848.41041,0.30097
2846.35082,0.27371
2844.29123,0.23040
2842.23164,0.19435
2840.17206,0.16761
2838.11247,0.14514
2836.05288,0.12463
2833.99329,0.10580
2831.93370,0.08882
2829.87412,0.07396
2827.81453,0.06147
2825.75494,0.05163
2823.69535,0.04437
2821.63576,0.03887
2819.57617,0.03446
2817.51659,0.03112
2815.45700,0.02874
2813.39741,0.02691
2811.33782,0.02525
2809.27823,0.02359
2807.21865,0.02216
2805.15906,0.02106
2803.09947,0.02020
2801.03988,0.01942
2798.98029,0.01889
2796.92071,0.01846
2794.86112,0.01769
2792.80153,0.01690
2790.74194,0.01634
2788.68235,0.01577
2786.62276,0.01513
2784.56318,0.01463
2782.50359,0.01422
2780.44400,0.01366
2778.38441,0.01300
2776.32482,0.01252
2774.26524,0.01224
2772.20565,0.01204
2770.14606,0.01200
2768.08647,0.01195
2766.02688,0.01161
2763.96729,0.01114
2761.90771,0.01083
2759.84812,0.01062
2757.78853,0.01044
2755.72894,0.01028
2753.66935,0.01011
2751.60977,0.00995
2749.55018,0.00999
2747.49059,0.01019
2745.43100,0.01021
2743.37141,0.00995
2741.31183,0.00968
2739.25224,0.00950
2737.19265,0.00927
2735.13306,0.00906
2733.07347,0.00903
2731.01388,0.00916
2728.95430,0.00930
2726.89471,0.00938
2724.83512,0.00931
2722.77553,0.00912
2720.71594,0.00902
2718.65636,0.00892
2716.59677,0.00881
2714.53718,0.00879
2712.47759,0.00873
2710.41800,0.00841
2708.35841,0.00811
2706.29883,0.00812
2704.23924,0.00826
2702.17965,0.00835
2700.12006,0.00830
2698.06047,0.00814
2696.00089,0.00811
2693.94130,0.00812
2691.88171,0.00799
2689.82212,0.00800
2687.76253,0.00829
2685.70295,0.00850
2683.64336,0.00855
2681.58377,0.00853
2679.52418,0.00854
2677.46459,0.00863
2675.40500,0.00863
2673.34542,0.00869
2671.28583,0.00900
2669.22624,0.00914
2667.16665,0.00900
2665.10706,0.00892
2663.04748,0.00897
2660.98789,0.00904
2658.92830,0.00909
2656.86871,0.00909
2654.80912,0.00903
2652.74953,0.00899
2650.68995,0.00903
2648.63036,0.00899
2646.57077,0.00893
2644.51118,0.00897
2642.45159,0.00884
2640.39201,0.00866
2638.33242,0.00868
2636.27283,0.00872
2634.21324,0.00848
2632.15365,0.00821
2630.09407,0.00812
2628.03448,0.00804
2625.97489,0.00795
2623.91530,0.00786
2621.85571,0.00762
2619.79612,0.00737
2617.73654,0.00721
2615.67695,0.00693
2613.61736,0.00677
2611.55777,0.00695
2609.49818,0.00716
2607.43860,0.00726
2605.37901,0.00713
2603.31942,0.00678
2601.25983,0.00657
2599.20024,0.00662
2597.14065,0.00658
2595.08107,0.00638
2593.02148,0.00630
2590.96189,0.00634
2588.90230,0.00651
2586.84271,0.00664
2584.78313,0.00651
2582.72354,0.00637
2580.66395,0.00637
2578.60436,0.00612
2576.54477,0.00569
2574.48519,0.00550
2572.42560,0.00536
2570.36601,0.00506
2568.30642,0.00483
2566.24683,0.00470
2564.18724,0.00467
2562.12766,0.00477
2560.06807,0.00483
2558.00848,0.00494
2555.94889,0.00520
2553.88930,0.00540
2551.82972,0.00532
2549.77013,0.00528
2547.71054,0.00562
2545.65095,0.00590
2543.59136,0.00579
2541.53177,0.00552
2539.47219,0.00521
2537.41260,0.00478
2535.35301,0.00450
2533.29342,0.00480
2531.23383,0.00538
2529.17425,0.00564
2527.11466,0.00549
2525.05507,0.00498
2522.99548,0.00437
2520.93589,0.00414
2518.87631,0.00444
2516.81672,0.00492
2514.75713,0.00529
2512.69754,0.00538
2510.63795,0.00509
2508.57836,0.00472
2506.51878,0.00480
2504.45919,0.00506
2502.39960,0.00508
2500.34001,0.00511
2498.28042,0.00525
2496.22084,0.00520
2494.16125,0.00481
2492.10166,0.00462
2490.04207,0.00466
2487.98248,0.00461
2485.92289,0.00469
2483.86331,0.00477
2481.80372,0.00462
2479.74413,0.00450
2477.68454,0.00432
2475.62495,0.00404
2473.56537,0.00401
2471.50578,0.00398
2469.44619,0.00385
2467.38660,0.00392
2465.32701,0.00397
2463.26743,0.00405
2461.20784,0.00419
2459.14825,0.00429
2457.08866,0.00447
2455.02907,0.00463
2452.96948,0.00465
2450.90990,0.00473
2448.85031,0.00467
2446.79072,0.00439
2444.73113,0.00433
2442.67154,0.00435
2440.61196,0.00407
2438.55237,0.00376
2436.49278,0.00366
2434.43319,0.00362
2432.37360,0.00361
2430.31401,0.00378
2428.25443,0.00409
2426.19484,0.00433
2424.13525,0.00427
2422.07566,0.00401
2420.01607,0.00394
2417.95649,0.00419
2415.89690,0.00437
2413.83731,0.00434
2411.77772,0.00423
2409.71813,0.00416
2407.65855,0.00418
2405.59896,0.00405
2403.53937,0.00392
2401.47978,0.00417
2399.42019,0.00456
2397.36060,0.00455
2395.30102,0.00438
2393.24143,0.00425
2391.18184,0.00402
2389.12225,0.00402
2387.06266,0.00428
2385.00308,0.00436
2382.94349,0.00407
2380.88390,0.00378
2378.82431,0.00386
2376.76472,0.00402
2374.70513,0.00413
2372.64555,0.00405
2370.58596,0.00351
2368.52637,0.00304
2366.46678,0.00315
2364.40719,0.00366
2362.34761,0.00435
2360.28802,0.00494
2358.22843,0.00513
2356.16884,0.00503
2354.10925,0.00486
2352.04967,0.00466
2349.99008,0.00447
2347.93049,0.00427
2345.87090,0.00421
2343.81131,0.00438
2341.75172,0.00445
2339.69214,0.00446
2337.63255,0.00467
2335.57296,0.00471
2333.51337,0.00424
2331.45378,0.00381
2329.39420,0.00426
2327.33461,0.00529
2325.27502,0.00594
2323.21543,0.00597
2321.15584,0.00592
2319.09625,0.00587
2317.03667,0.00554
2314.97708,0.00534
2312.91749,0.00553
2310.85790,0.00569
2308.79831,0.00568
2306.73873,0.00558
2304.67914,0.00549
2302.61955,0.00552
2300.55996,0.00582
2298.50037,0.00623
2296.44079,0.00632
2294.38120,0.00606
2292.32161,0.00604
2290.26202,0.00661
2288.20243,0.00735
2286.14284,0.00791
2284.08326,0.00803
2282.02367,0.00773
2279.96408,0.00790
2277.90449,0.00850
2275.84490,0.00851
2273.78532,0.00804
2271.72573,0.00779
2269.66614,0.00739
2267.60655,0.00671
2265.54696,0.00656
2263.48737,0.00708
2261.42779,0.00740
2259.36820,0.00728
2257.30861,0.00753
2255.24902,0.00848
2253.18943,0.00973
2251.12985,0.01123
2249.07026,0.01351
2247.01067,0.01745
2244.95108,0.02409
2242.89149,0.03412
2240.83191,0.04633
2238.77232,0.05643
2236.71273,0.05896
2234.65314,0.05142
2232.59355,0.03769
2230.53396,0.02440
2228.47438,0.01516
2226.41479,0.01043
2224.35520,0.00829
2222.29561,0.00662
2220.23602,0.00531
2218.17644,0.00458
2216.11685,0.00429
2214.05726,0.00442
2211.99767,0.00500
2209.93808,0.00580
2207.87849,0.00556
2205.81891,0.00448
2203.75932,0.00417
2201.69973,0.00411
2199.64014,0.00329
2197.58055,0.00291
2195.52097,0.00381
2193.46138,0.00443
2191.40179,0.00365
2189.34220,0.00261
2187.28261,0.00287
2185.22303,0.00392
2183.16344,0.00419
2181.10385,0.00390
2179.04426,0.00404
2176.98467,0.00438
2174.92508,0.00454
2172.86550,0.00442
2170.80591,0.00392
2168.74632,0.00371
2166.68673,0.00442
2164.62714,0.00474
2162.56756,0.00305
2160.50797,0.00031
2158.44838,-0.00138
2156.38879,-0.00127
2154.32920,-0.00022
2152.26961,0.00047
2150.21003,0.00065
2148.15044,0.00114
2146.09085,0.00161
2144.03126,0.00130
2141.97167,0.00099
2139.91209,0.00107
2137.85250,0.00106
2135.79291,0.00081
2133.73332,0.00051
2131.67373,0.00055
2129.61415,0.00111
2127.55456,0.00203
2125.49497,0.00271
2123.43538,0.00253
2121.37579,0.00190
2119.31620,0.00163
2117.25662,0.00206
2115.19703,0.00278
2113.13744,0.00311
2111.07785,0.00298
2109.01826,0.00308
2106.95868,0.00343
2104.89909,0.00366
2102.83950,0.00359
2100.77991,0.00326
2098.72032,0.00296
2096.66073,0.00268
2094.60115,0.00232
2092.54156,0.00208
2090.48197,0.00230
2088.42238,0.00296
2086.36279,0.00373
2084.30321,0.00377
2082.24362,0.00293
2080.18403,0.00288
2078.12444,0.00367
2076.06485,0.00373
2074.00527,0.00337
2071.94568,0.00302
2069.88609,0.00231
2067.82650,0.00192
2065.76691,0.00222
2063.70732,0.00241
2061.64774,0.00223
2059.58815,0.00219
2057.52856,0.00240
2055.46897,0.00233
2053.40938,0.00215
2051.34980,0.00248
2049.29021,0.00283
2047.23062,0.00310
2045.17103,0.00349
2043.11144,0.00351
2041.05185,0.00313
2038.99227,0.00276
2036.93268,0.00234
2034.87309,0.00230
2032.81350,0.00361
2030.75391,0.00493
2028.69433,0.00444
2026.63474,0.00318
2024.57515,0.00255
2022.51556,0.00268
2020.45597,0.00281
2018.39639,0.00270
2016.33680,0.00252
2014.27721,0.00224
2012.21762,0.00193
2010.15803,0.00085
2008.09844,-0.00046
2006.03886,-0.00052
2003.97927,0.00042
2001.91968,0.00171
1999.86009,0.00215
1997.80050,0.00170
1995.74092,0.00214
1993.68133,0.00263
1991.62174,0.00213
1989.56215,0.00190
1987.50256,0.00225
1985.44297,0.00254
1983.38339,0.00254
1981.32380,0.00261
1979.26421,0.00256
1977.20462,0.00220
1975.14503,0.00180
1973.08545,0.00150
1971.02586,0.00221
1968.96627,0.00293
1966.90668,0.00199
1964.84709,0.00110
1962.78751,0.00116
1960.72792,0.00080
1958.66833,0.00011
1956.60874,0.00025
1954.54915,0.00031
1952.48956,-0.00048
1950.42998,-0.00080
1948.37039,-0.00026
1946.31080,0.00055
1944.25121,0.00141
1942.19162,0.00195
1940.13204,0.00180
1938.07245,0.00101
1936.01286,0.00017
1933.95327,-0.00023
1931.89368,-0.00027
1929.83409,-0.00026
1927.77451,-0.00014
1925.71492,0.00030
1923.65533,0.00106
1921.59574,0.00147
1919.53615,0.00118
1917.47657,0.00101
1915.41698,0.00155
1913.35739,0.00214
1911.29780,0.00225
1909.23821,0.00214
1907.17863,0.00210
1905.11904,0.00230
1903.05945,0.00266
1900.99986,0.00286
1898.94027,0.00283
1896.88068,0.00272
1894.82110,0.00264
1892.76151,0.00264
1890.70192,0.00258
1888.64233,0.00251
1886.58274,0.00260
1884.52316,0.00262
1882.46357,0.00242
1880.40398,0.00219
1878.34439,0.00217
1876.28480,0.00269
1874.22521,0.00349
1872.16563,0.00380
1870.10604,0.00336
1868.04645,0.00308
1865.98686,0.00356
1863.92727,0.00403
1861.86769,0.00404
1859.80810,0.00391
1857.74851,0.00392
1855.68892,0.00396
1853.62933,0.00386
1851.56975,0.00378
1849.51016,0.00397
1847.45057,0.00427
1845.39098,0.00458
1843.33139,0.00490
1841.27180,0.00492
1839.21222,0.00481
1837.15263,0.00480
1835.09304,0.00472
1833.03345,0.00460
1830.97386,0.00458
1828.91428,0.00466
1826.85469,0.00484
1824.79510,0.00505
1822.73551,0.00516
1820.67592,0.00509
1818.61633,0.00502
1816.55675,0.00513
1814.49716,0.00517
1812.43757,0.00500
1810.37798,0.00488
1808.31839,0.00500
1806.25881,0.00534
1804.19922,0.00568
1802.13963,0.00596
1800.08004,0.00617
1798.02045,0.00626
1795.96087,0.00644
1793.90128,0.00683
1791.84169,0.00734
1789.78210,0.00794
1787.72251,0.00854
1785.66292,0.00919
1783.60334,0.01017
1781.54375,0.01155
1779.48416,0.01313
1777.42457,0.01458
1775.36498,0.01571
1773.30540,0.01671
1771.24581,0.01755
1769.18622,0.01777
1767.12663,0.01736
1765.06704,0.01658
1763.00745,0.01544
1760.94787,0.01392
1758.88828,0.01254
1756.82869,0.01146
1754.76910,0.01069
1752.70951,0.01015
1750.64993,0.00954
1748.59034,0.00917
1746.53075,0.00938
1744.47116,0.00980
1742.41157,0.01021
1740.35199,0.01067
1738.29240,0.01122
1736.23281,0.01172
1734.17322,0.01222
1732.11363,0.01270
1730.05404,0.01273
1727.99446,0.01246
1725.93487,0.01228
1723.87528,0.01216
1721.81569,0.01184
1719.75610,0.01129
1717.69652,0.01052
1715.63693,0.00983
1713.57734,0.00954
1711.51775,0.00938
1709.45816,0.00927
1707.39857,0.00922
1705.33899,0.00918
1703.27940,0.00903
1701.21981,0.00884
1699.16022,0.00893
1697.10063,0.00926
1695.04105,0.00951
1692.98146,0.00964
1690.92187,0.00957
1688.86228,0.00937
1686.80269,0.00933
1684.74311,0.00960
1682.68352,0.01015
1680.62393,0.01073
1678.56434,0.01143
1676.50475,0.01265
1674.44516,0.01453
1672.38558,0.01626
1670.32599,0.01748
1668.26640,0.01816
1666.20681,0.01814
1664.14722,0.01760
1662.08764,0.01681
1660.02805,0.01622
1657.96846,0.01605
1655.90887,0.01625
1653.84928,0.01701
1651.78969,0.01847
1649.73011,0.01981
1647.67052,0.02189
1645.61093,0.02566
1643.55134,0.02964
1641.49175,0.03267
1639.43217,0.03424
1637.37258,0.03410
1635.31299,0.03302
1633.25340,0.03247
1631.19381,0.03279
1629.13423,0.03391
1627.07464,0.03577
1625.01505,0.03825
1622.95546,0.04172
1620.89587,0.04583
1618.83628,0.05053
1616.77670,0.05794
1614.71711,0.06741
1612.65752,0.07643
1610.59793,0.08544
1608.53834,0.09343
1606.47876,0.09847
1604.41917,0.09988
1602.35958,0.09802
1600.29999,0.09405
1598.24040,0.08951
1596.18081,0.08526
1594.12123,0.08182
1592.06164,0.07950
1590.00205,0.07827
1587.94246,0.07813
1585.88287,0.07925
1583.82329,0.08183
1581.76370,0.08553
1579.70411,0.08901
1577.64452,0.09129
1575.58493,0.09159
1573.52535,0.08944
1571.46576,0.08560
1569.40617,0.08031
1567.34658,0.07520
1565.28699,0.07122
1563.22740,0.06819
1561.16782,0.06583
1559.10823,0.06299
1557.04864,0.06029
1554.98905,0.05862
1552.92946,0.05713
1550.86988,0.05603
1548.81029,0.05565
1546.75070,0.05607
1544.69111,0.05751
1542.63152,0.05934
1540.57193,0.05929
1538.51235,0.05548
1536.45276,0.05025
1534.39317,0.04397
1532.33358,0.03722
1530.27399,0.03243
1528.21441,0.02907
1526.15482,0.02640
1524.09523,0.02453
1522.03564,0.02297
1519.97605,0.02167
1517.91647,0.02105
1515.85688,0.02095
1513.79729,0.02113
1511.73770,0.02137
1509.67811,0.02161
1507.61852,0.02209
1505.55894,0.02302
1503.49935,0.02385
1501.43976,0.02454
1499.38017,0.02515
1497.32058,0.02553
1495.26100,0.02568
1493.20141,0.02579
1491.14182,0.02614
1489.08223,0.02735
1487.02264,0.02970
1484.96305,0.03288
1482.90347,0.03701
1480.84388,0.04233
1478.78429,0.04805
1476.72470,0.05413
1474.66511,0.06124
1472.60553,0.06805
1470.54594,0.07236
1468.48635,0.07558
1466.42676,0.07949
1464.36717,0.08344
1462.30759,0.08545
1460.24800,0.08693
1458.18841,0.09432
1456.12882,0.11144
1454.06923,0.12622
1452.00964,0.13442
1449.95006,0.13854
1447.89047,0.13954
1445.83088,0.13921
1443.77129,0.13959
1441.71170,0.14115
1439.65212,0.14284
1437.59253,0.14337
1435.53294,0.14100
1433.47335,0.13456
1431.41376,0.12380
1429.35417,0.10979
1427.29459,0.09739
1425.23500,0.08981
1423.17541,0.08715
1421.11582,0.08777
1419.05623,0.08931
1416.99665,0.09005
1414.93706,0.09023
1412.87747,0.09088
1410.81788,0.09189
1408.75829,0.09235
1406.69871,0.09158
1404.63912,0.08921
1402.57953,0.08531
1400.51994,0.08021
1398.46035,0.07411
1396.40076,0.06781
1394.34118,0.06172
1392.28159,0.05648
1390.22200,0.05255
1388.16241,0.04977
1386.10282,0.04858
1384.04324,0.04911
1381.98365,0.05085
1379.92406,0.05320
1377.86447,0.05510
1375.80488,0.05576
1373.74529,0.05537
1371.68571,0.05462
1369.62612,0.05397
1367.56653,0.05358
1365.50694,0.05330
1363.44735,0.05292
1361.38777,0.05236
1359.32818,0.05166
1357.26859,0.05092
1355.20900,0.05023
1353.14941,0.04963
1351.08983,0.04901
1349.03024,0.04823
1346.97065,0.04721
1344.91106,0.04605
1342.85147,0.04476
1340.79188,0.04320
1338.73230,0.04141
1336.67271,0.03976
1334.61312,0.03832
1332.55353,0.03704
1330.49394,0.03611
1328.43436,0.03578
1326.37477,0.03612
1324.31518,0.03695
1322.25559,0.03803
1320.19600,0.03911
1318.13641,0.03995
1316.07683,0.04042
1314.01724,0.04074
1311.95765,0.04100
1309.89806,0.04106
1307.83847,0.04089
1305.77889,0.04057
1303.71930,0.04016
1301.65971,0.03970
1299.60012,0.03917
1297.54053,0.03852
1295.48095,0.03780
1293.42136,0.03699
1291.36177,0.03603
1289.30218,0.03483
1287.24259,0.03344
1285.18300,0.03209
1283.12342,0.03089
1281.06383,0.02995
1279.00424,0.02933
1276.94465,0.02896
1274.88506,0.02881
1272.82548,0.02876
1270.76589,0.02871
1268.70630,0.02879
1266.64671,0.02897
1264.58712,0.02902
1262.52753,0.02888
1260.46795,0.02865
1258.40836,0.02847
1256.34877,0.02846
1254.28918,0.02871
1252.22959,0.02907
1250.17001,0.02936
1248.11042,0.02956
1246.05083,0.02976
1243.99124,0.03007
1241.93165,0.03045
1239.87207,0.03088
1237.81248,0.03137
1235.75289,0.03171
1233.69330,0.03190
1231.63371,0.03232
1229.57412,0.03308
1227.51454,0.03396
1225.45495,0.03470
1223.39536,0.03518
1221.33577,0.03526
1219.27618,0.03488
1217.21660,0.03412
1215.15701,0.03323
1213.09742,0.03251
1211.03783,0.03204
1208.97824,0.03169
1206.91865,0.03144
1204.85907,0.03138
1202.79948,0.03147
1200.73989,0.03161
1198.68030,0.03177
1196.62071,0.03202
1194.56113,0.03238
1192.50154,0.03279
1190.44195,0.03322
1188.38236,0.03357
1186.32277,0.03371
1184.26319,0.03360
1182.20360,0.03317
1180.14401,0.03248
1178.08442,0.03165
1176.02483,0.03069
1173.96524,0.02966
1171.90566,0.02862
1169.84607,0.02766
1167.78648,0.02684
1165.72689,0.02606
1163.66730,0.02519
1161.60772,0.02431
1159.54813,0.02358
1157.48854,0.02304
1155.42895,0.02251
1153.36936,0.02193
1151.30977,0.02150
1149.25019,0.02122
1147.19060,0.02104
1145.13101,0.02103
1143.07142,0.02128
1141.01183,0.02190
1138.95225,0.02271
1136.89266,0.02360
1134.83307,0.02453
1132.77348,0.02513
1130.71389,0.02512
1128.65431,0.02458
1126.59472,0.02374
1124.53513,0.02282
1122.47554,0.02212
1120.41595,0.02190
1118.35636,0.02214
1116.29678,0.02255
1114.23719,0.02288
1112.17760,0.02303
1110.11801,0.02305
1108.05842,0.02296
1105.99884,0.02281
1103.93925,0.02282
1101.87966,0.02319
1099.82007,0.02386
1097.76048,0.02472
1095.70089,0.02564
1093.64131,0.02649
1091.58172,0.02718
1089.52213,0.02767
1087.46254,0.02814
1085.40295,0.02872
1083.34337,0.02914
1081.28378,0.02918
1079.22419,0.02893
1077.16460,0.02853
1075.10501,0.02816
1073.04543,0.02780
1070.98584,0.02737
1068.92625,0.02698
1066.86666,0.02670
1064.80707,0.02653
1062.74748,0.02663
1060.68790,0.02703
1058.62831,0.02762
1056.56872,0.02838
1054.50913,0.02920
1052.44954,0.02990
1050.38996,0.03041
1048.33037,0.03066
1046.27078,0.03054
1044.21119,0.03005
1042.15160,0.02930
1040.09201,0.02838
1038.03243,0.02747
1035.97284,0.02676
1033.91325,0.02624
1031.85366,0.02580
1029.79407,0.02555
1027.73449,0.02552
1025.67490,0.02566
1023.61531,0.02604
1021.55572,0.02674
1019.49613,0.02795
1017.43655,0.02983
1015.37696,0.03231
1013.31737,0.03486
1011.25778,0.03680
1009.19819,0.03827
1007.13860,0.04000
1005.07902,0.04240
1003.01943,0.04547
1000.95984,0.04884
998.90025,0.05208
996.84066,0.05489
994.78108,0.05715
992.72149,0.05917
990.66190,0.06201
988.60231,0.06707
986.54272,0.07537
984.48313,0.08762
982.42355,0.10439
980.36396,0.12585
978.30437,0.15169
976.24478,0.18149
974.18519,0.21433
972.12561,0.24815
970.06602,0.27909
968.00643,0.30109
965.94684,0.30664
963.88725,0.29000
961.82767,0.25280
959.76808,0.20519
957.70849,0.15913
955.64890,0.12177
953.58931,0.09453
951.52972,0.07579
949.47014,0.06326
947.41055,0.05485
945.35096,0.04910
943.29137,0.04532
941.23178,0.04316
939.17220,0.04232
937.11261,0.04255
935.05302,0.04373
932.99343,0.04569
930.93384,0.04840
928.87425,0.05188
926.81467,0.05589
924.75508,0.05999
922.69549,0.06379
920.63590,0.06695
918.57631,0.06911
916.51673,0.06979
914.45714,0.06865
912.39755,0.06559
910.33796,0.06073
908.27837,0.05469
906.21879,0.04819
904.15920,0.04188
902.09961,0.03637
900.04002,0.03205
897.98043,0.02897
895.92084,0.02685
893.86126,0.02531
891.80167,0.02418
889.74208,0.02332
887.68249,0.02264
885.62290,0.02211
883.56332,0.02170
881.50373,0.02125
879.44414,0.02063
877.38455,0.02007
875.32496,0.01974
873.26537,0.01946
871.20579,0.01914
869.14620,0.01888
867.08661,0.01875
865.02702,0.01868
862.96743,0.01858
860.90785,0.01836
858.84826,0.01821
856.78867,0.01819
854.72908,0.01815
852.66949,0.01809
850.60991,0.01823
848.55032,0.01859
846.49073,0.01904
844.43114,0.01951
842.37155,0.02009
840.31196,0.02095
838.25238,0.02223
836.19279,0.02333
834.13320,0.02343
832.07361,0.02290
830.01402,0.02245
827.95444,0.02218
825.89485,0.02192
823.83526,0.02166
821.77567,0.02148
819.71608,0.02123
817.65649,0.02093
815.59691,0.02084
813.53732,0.02089
811.47773,0.02106
809.41814,0.02140
807.35855,0.02166
805.29897,0.02179
803.23938,0.02200
801.17979,0.02233
799.12020,0.02263
797.06061,0.02296
795.00103,0.02342
792.94144,0.02397
790.88185,0.02442
788.82226,0.02467
786.76267,0.02493
784.70308,0.02529
782.64350,0.02562
780.58391,0.02581
778.52432,0.02603
776.46473,0.02649
774.40514,0.02708
772.34556,0.02768
770.28597,0.02832
768.22638,0.02892
766.16679,0.02954
764.10720,0.03020
762.04761,0.03072
759.98803,0.03118
757.92844,0.03170
755.86885,0.03220
753.80926,0.03272
751.74967,0.03327
749.69009,0.03377
747.63050,0.03426
745.57091,0.03480
743.51132,0.03535
741.45173,0.03594
739.39215,0.03671
737.33256,0.03765
735.27297,0.03866
733.21338,0.03996
731.15379,0.04150
729.09420,0.04258
727.03462,0.04299
724.97503,0.04328
722.91544,0.04384
720.85585,0.04442
718.79626,0.04414
716.73668,0.04294
714.67709,0.04185
712.61750,0.04139
710.55791,0.04124
708.49832,0.04122
706.43873,0.04156
704.37915,0.04224
702.31956,0.04299
700.25997,0.04371
698.20038,0.04442
696.14079,0.04515
694.08121,0.04594
692.02162,0.04674
689.96203,0.04729
687.90244,0.04731
685.84285,0.04684
683.78327,0.04619
681.72368,0.04557
679.66409,0.04504
677.60450,0.04457
675.54491,0.04416
673.48532,0.04374
671.42574,0.04327
669.36615,0.04266
667.30656,0.04165
665.24697,0.04072
663.18738,0.04018
661.12780,0.03989
659.06821,0.03965
657.00862,0.03934
654.94903,0.03895
652.88944,0.03853
650.82985,0.03820
648.77027,0.03792
646.71068,0.03757
644.65109,0.03738
642.59150,0.03747
640.53191,0.03762
638.47233,0.03769
636.41274,0.03768
634.35315,0.03765
632.29356,0.03766
630.23397,0.03765
628.17439,0.03750
626.11480,0.03730
624.05521,0.03727
621.99562,0.03739
619.93603,0.03754
617.87644,0.03753
615.81686,0.03732
613.75727,0.03707
611.69768,0.03694
609.63809,0.03684
607.57850,0.03658
605.51892,0.03619
603.45933,0.03581
601.39974,0.03540
599.34015,0.03495
597.28056,0.03457
595.22097,0.03457
593.16139,0.03480
591.10180,0.03491
589.04221,0.03505
586.98262,0.03533
584.92303,0.03544
582.86345,0.03523
580.80386,0.03489
578.74427,0.03451
576.68468,0.03407
574.62509,0.03369
572.56551,0.03336
570.50592,0.03317
568.44633,0.03322
566.38674,0.03336
564.32715,0.03351
562.26756,0.03366
560.20798,0.03375
558.14839,0.03379
556.08880,0.03373
554.02921,0.03372
551.96962,0.03376
549.91004,0.03373
547.85045,0.03356
545.79086,0.03329
543.73127,0.03305
541.67168,0.03284
539.61209,0.03257
537.55251,0.03226
535.49292,0.03196
533.43333,0.03169
531.37374,0.03128
529.31415,0.03077
527.25457,0.03045
525.19498,0.03027
523.13539,0.03006
521.07580,0.02982
519.01621,0.02945
516.95663,0.02900
514.89704,0.02856
512.83745,0.02813
510.77786,0.02769
508.71827,0.02741
506.65868,0.02732
504.59910,0.02703
502.53951,0.02652
500.47992,0.02621
498.42033,0.02603
496.36074,0.02567
494.30116,0.02528
492.24157,0.02510
490.18198,0.02491
488.12239,0.02467
486.06280,0.02455
484.00321,0.02453
481.94363,0.02454
479.88404,0.02442
477.82445,0.02416
475.76486,0.02410
473.70527,0.02433
471.64569,0.02449
469.58610,0.02432
467.52651,0.02413
465.46692,0.02399
463.40733,0.02393
461.34775,0.02419
459.28816,0.02449
457.22857,0.02444
455.16898,0.02422
453.10939,0.02410
451.04980,0.02435
448.99022,0.02491
446.93063,0.02541
444.87104,0.02587
442.81145,0.02640
440.75186,0.02695
438.69228,0.02761
436.63269,0.02862
434.57310,0.02977
432.51351,0.03075
430.45392,0.03148
428.39433,0.03190
426.33475,0.03224
424.27516,0.03243
422.21557,0.03230
420.15598,0.03207
418.09639,0.03180
416.03681,0.03163
413.97722,0.03142
411.91763,0.03094
409.85804,0.03055
407.79845,0.03061
405.73887,0.03074
403.67928,0.03057
401.61969,0.03022
399.56010,0.02977
