3997.65486	0.06479
3995.59527	0.06545
3993.53569	0.06572
3991.47610	0.06521
3989.41652	0.06516
3987.35693	0.06582
3985.29735	0.06634
3983.23776	0.06660
3981.17817	0.06660
3979.11859	0.06617
3977.05900	0.06550
3974.99942	0.06525
3972.93983	0.06540
3970.88025	0.06551
3968.82066	0.06527
3966.76108	0.06458
3964.70149	0.06418
3962.64191	0.06471
3960.58232	0.06534
3958.52274	0.06537
3956.46315	0.06524
3954.40357	0.06531
3952.34398	0.06538
3950.28440	0.06526
3948.22481	0.06495
3946.16523	0.06435
3944.10564	0.06402
3942.04606	0.06454
3939.98647	0.06512
3937.92689	0.06514
3935.86730	0.06485
3933.80772	0.06472
3931.74813	0.06488
3929.68855	0.06485
3927.62896	0.06442
3925.56937	0.06395
3923.50979	0.06366
3921.45020	0.06353
3919.39062	0.06374
3917.33103	0.06411
3915.27145	0.06432
3913.21186	0.06441
3911.15228	0.06440
3909.09269	0.06416
3907.03311	0.06368
3904.97352	0.06344
3902.91394	0.06356
3900.85435	0.06337
3898.79477	0.06297
3896.73518	0.06272
3894.67560	0.06262
3892.61601	0.06253
3890.55643	0.06273
3888.49684	0.06327
3886.43726	0.06332
3884.37767	0.06290
3882.31809	0.06261
3880.25850	0.06234
3878.19892	0.06208
3876.13933	0.06235
3874.07974	0.06327
3872.02016	0.06381
3869.96057	0.06286
3867.90099	0.06119
3865.84140	0.06040
3863.78182	0.06056
3861.72223	0.06108
3859.66265	0.06160
3857.60306	0.06168
3855.54348	0.06130
3853.48389	0.06119
3851.42431	0.06185
3849.36472	0.06251
3847.30514	0.06225
3845.24555	0.06140
3843.18597	0.06106
3841.12638	0.06063
3839.06680	0.06004
3837.00721	0.06045
3834.94763	0.06111
3832.88804	0.06105
3830.82846	0.06060
3828.76887	0.06051
3826.70929	0.06084
3824.64970	0.06112
3822.59012	0.06111
3820.53053	0.06119
3818.47094	0.06143
3816.41136	0.06161
3814.35177	0.06149
3812.29219	0.06077
3810.23260	0.06027
3808.17302	0.06058
3806.11343	0.06051
3804.05385	0.05944
3801.99426	0.05907
3799.93468	0.06007
3797.87509	0.06053
3795.81551	0.06013
3793.75592	0.05994
3791.69634	0.06002
3789.63675	0.06013
3787.57717	0.06052
3785.51758	0.06088
3783.45800	0.06057
3781.39841	0.06000
3779.33883	0.06018
3777.27924	0.06098
3775.21966	0.06074
3773.16007	0.05924
3771.10049	0.05831
3769.04090	0.05847
3766.98132	0.05851
3764.92173	0.05822
3762.86214	0.05763
3760.80256	0.05704
3758.74297	0.05738
3756.68339	0.05830
3754.62380	0.05861
3752.56422	0.05798
3750.50463	0.05704
3748.44505	0.05680
3746.38546	0.05719
3744.32588	0.05814
3742.26629	0.05859
3740.20671	0.05740
3738.14712	0.05577
3736.08754	0.05544
3734.02795	0.05651
3731.96837	0.05730
3729.90878	0.05723
3727.84920	0.05676
3725.78961	0.05606
3723.73003	0.05579
3721.67044	0.05623
3719.61086	0.05658
3717.55127	0.05650
3715.49169	0.05605
3713.43210	0.05570
3711.37251	0.05598
3709.31293	0.05640
3707.25334	0.05640
3705.19376	0.05632
3703.13417	0.05633
3701.07459	0.05625
3699.01500	0.05604
3696.95542	0.05588
3694.89583	0.05573
3692.83625	0.05542
3690.77666	0.05534
3688.71708	0.05590
3686.65749	0.05642
3684.59791	0.05668
3682.53832	0.05666
3680.47874	0.05601
3678.41915	0.05550
3676.35957	0.05603
3674.29998	0.05656
3672.24040	0.05553
3670.18081	0.05441
3668.12123	0.05448
3666.06164	0.05459
3664.00206	0.05429
3661.94247	0.05439
3659.88289	0.05512
3657.82330	0.05557
3655.76371	0.05533
3653.70413	0.05487
3651.64454	0.05439
3649.58496	0.05407
3647.52537	0.05436
3645.46579	0.05509
3643.40620	0.05547
3641.34662	0.05533
3639.28703	0.05548
3637.22745	0.05631
3635.16786	0.05723
3633.10828	0.05774
3631.04869	0.05750
3628.98911	0.05680
3626.92952	0.05681
3624.86994	0.05733
3622.81035	0.05764
3620.75077	0.05793
3618.69118	0.05854
3616.63160	0.05898
3614.57201	0.05912
3612.51243	0.05954
3610.45284	0.05985
3608.39326	0.05903
3606.33367	0.05808
3604.27408	0.05832
3602.21450	0.05895
3600.15491	0.05943
3598.09533	0.05994
3596.03574	0.06043
3593.97616	0.06072
3591.91657	0.06112
3589.85699	0.06189
3587.79740	0.06242
3585.73782	0.06227
3583.67823	0.06181
3581.61865	0.06160
3579.55906	0.06192
3577.49948	0.06217
3575.43989	0.06214
3573.38031	0.06245
3571.32072	0.06263
3569.26114	0.06213
3567.20155	0.06199
3565.14197	0.06259
3563.08238	0.06298
3561.02280	0.06323
3558.96321	0.06409
3556.90363	0.06552
3554.84404	0.06659
3552.78446	0.06687
3550.72487	0.06678
3548.66528	0.06669
3546.60570	0.06697
3544.54611	0.06797
3542.48653	0.06880
3540.42694	0.06863
3538.36736	0.06808
3536.30777	0.06811
3534.24819	0.06884
3532.18860	0.06916
3530.12902	0.06880
3528.06943	0.06922
3526.00985	0.07050
3523.95026	0.07121
3521.89068	0.07129
3519.83109	0.07126
3517.77151	0.07130
3515.71192	0.07159
3513.65234	0.07194
3511.59275	0.07226
3509.53317	0.07247
3507.47358	0.07234
3505.41400	0.07235
3503.35441	0.07307
3501.29483	0.07377
3499.23524	0.07370
3497.17565	0.07329
3495.11607	0.07299
3493.05648	0.07325
3490.99690	0.07429
3488.93731	0.07514
3486.87773	0.07480
3484.81814	0.07398
3482.75856	0.07370
3480.69897	0.07391
3478.63939	0.07399
3476.57980	0.07398
3474.52022	0.07447
3472.46063	0.07522
3470.40105	0.07549
3468.34146	0.07526
3466.28188	0.07517
3464.22229	0.07538
3462.16271	0.07568
3460.10312	0.07602
3458.04354	0.07620
3455.98395	0.07622
3453.92437	0.07631
3451.86478	0.07653
3449.80520	0.07674
3447.74561	0.07667
3445.68603	0.07669
3443.62644	0.07697
3441.56685	0.07706
3439.50727	0.07754
3437.44768	0.07830
3435.38810	0.07843
3433.32851	0.07828
3431.26893	0.07832
3429.20934	0.07862
3427.14976	0.07915
3425.09017	0.07935
3423.03059	0.07918
3420.97100	0.07945
3418.91142	0.08047
3416.85183	0.08185
3414.79225	0.08271
3412.73266	0.08279
3410.67308	0.08263
3408.61349	0.08260
3406.55391	0.08279
3404.49432	0.08298
3402.43474	0.08292
3400.37515	0.08302
3398.31557	0.08396
3396.25598	0.08513
3394.19640	0.08546
3392.13681	0.08521
3390.07723	0.08510
3388.01764	0.08520
3385.95805	0.08547
3383.89847	0.08607
3381.83888	0.08653
3379.77930	0.08673
3377.71971	0.08734
3375.66013	0.08810
3373.60054	0.08851
3371.54096	0.08875
3369.48137	0.08906
3367.42179	0.08960
3365.36220	0.09011
3363.30262	0.09051
3361.24303	0.09137
3359.18345	0.09283
3357.12386	0.09416
3355.06428	0.09494
3353.00469	0.09562
3350.94511	0.09653
3348.88552	0.09755
3346.82594	0.09860
3344.76635	0.09968
3342.70677	0.10115
3340.64718	0.10316
3338.58760	0.10528
3336.52801	0.10737
3334.46842	0.10904
3332.40884	0.11035
3330.34925	0.11230
3328.28967	0.11491
3326.23008	0.11779
3324.17050	0.12074
3322.11091	0.12326
3320.05133	0.12574
3317.99174	0.12896
3315.93216	0.13277
3313.87257	0.13665
3311.81299	0.14043
3309.75340	0.14429
3307.69382	0.14835
3305.63423	0.15231
3303.57465	0.15596
3301.51506	0.15960
3299.45548	0.16385
3297.39589	0.16852
3295.33631	0.17290
3293.27672	0.17691
3291.21714	0.18081
3289.15755	0.18449
3287.09797	0.18767
3285.03838	0.19064
3282.97880	0.19358
3280.91921	0.19607
3278.85962	0.19779
3276.80004	0.19856
3274.74045	0.19841
3272.68087	0.19783
3270.62128	0.19717
3268.56170	0.19660
3266.50211	0.19576
3264.44253	0.19408
3262.38294	0.19163
3260.32336	0.18895
3258.26377	0.18657
3256.20419	0.18435
3254.14460	0.18181
3252.08502	0.17875
3250.02543	0.17603
3247.96585	0.17390
3245.90626	0.17125
3243.84668	0.16834
3241.78709	0.16611
3239.72751	0.16422
3237.66792	0.16225
3235.60834	0.16056
3233.54875	0.15897
3231.48917	0.15686
3229.42958	0.15464
3227.36999	0.15300
3225.31041	0.15178
3223.25082	0.15030
3221.19124	0.14822
3219.13165	0.14609
3217.07207	0.14451
3215.01248	0.14320
3212.95290	0.14172
3210.89331	0.13987
3208.83373	0.13832
3206.77414	0.13742
3204.71456	0.13635
3202.65497	0.13508
3200.59539	0.13387
3198.53580	0.13239
3196.47622	0.13092
3194.41663	0.12957
3192.35705	0.12810
3190.29746	0.12713
3188.23788	0.12652
3186.17829	0.12533
3184.11871	0.12365
3182.05912	0.12217
3179.99954	0.12100
3177.93995	0.11992
3175.88037	0.11899
3173.82078	0.11801
3171.76119	0.11660
3169.70161	0.11502
3167.64202	0.11393
3165.58244	0.11335
3163.52285	0.11254
3161.46327	0.11152
3159.40368	0.11090
3157.34410	0.11026
3155.28451	0.10921
3153.22493	0.10834
3151.16534	0.10766
3149.10576	0.10670
3147.04617	0.10577
3144.98659	0.10507
3142.92700	0.10448
3140.86742	0.10405
3138.80783	0.10365
3136.74825	0.10299
3134.68866	0.10218
3132.62908	0.10143
3130.56949	0.10103
3128.50991	0.10117
3126.45032	0.10128
3124.39074	0.10081
3122.33115	0.10020
3120.27156	0.10004
3118.21198	0.10016
3116.15239	0.10023
3114.09281	0.10023
3112.03322	0.10012
3109.97364	0.10010
3107.91405	0.10042
3105.85447	0.10057
3103.79488	0.10014
3101.73530	0.09987
3099.67571	0.10027
3097.61613	0.10073
3095.55654	0.10078
3093.49696	0.10091
3091.43737	0.10144
3089.37779	0.10200
3087.31820	0.10256
3085.25862	0.10312
3083.19903	0.10337
3081.13945	0.10329
3079.07986	0.10337
3077.02028	0.10382
3074.96069	0.10420
3072.90111	0.10423
3070.84152	0.10405
3068.78194	0.10416
3066.72235	0.10462
3064.66276	0.10471
3062.60318	0.10429
3060.54359	0.10353
3058.48401	0.10265
3056.42442	0.10191
3054.36484	0.10128
3052.30525	0.10072
3050.24567	0.10024
3048.18608	0.09958
3046.12650	0.09884
3044.06691	0.09839
3042.00733	0.09802
3039.94774	0.09735
3037.88816	0.09651
3035.82857	0.09568
3033.76899	0.09480
3031.70940	0.09419
3029.64982	0.09365
3027.59023	0.09260
3025.53065	0.09154
3023.47106	0.09111
3021.41148	0.09097
3019.35189	0.09074
3017.29231	0.09033
3015.23272	0.08990
3013.17313	0.08961
3011.11355	0.08932
3009.05396	0.08892
3006.99438	0.08848
3004.93479	0.08832
3002.87521	0.08846
3000.81562	0.08859
2998.75604	0.08878
2996.69645	0.08897
2994.63687	0.08899
2992.57728	0.08900
2990.51770	0.08943
2988.45811	0.09037
2986.39853	0.09114
2984.33894	0.09132
2982.27936	0.09140
2980.21977	0.09169
2978.16019	0.09220
2976.10060	0.09288
2974.04102	0.09355
2971.98143	0.09405
2969.92185	0.09418
2967.86226	0.09392
2965.80268	0.09346
2963.74309	0.09329
2961.68351	0.09340
2959.62392	0.09327
2957.56433	0.09302
2955.50475	0.09273
2953.44516	0.09236
2951.38558	0.09223
2949.32599	0.09217
2947.26641	0.09226
2945.20682	0.09283
2943.14724	0.09343
2941.08765	0.09381
2939.02807	0.09470
2936.96848	0.09616
2934.90890	0.09745
2932.84931	0.09840
2930.78973	0.09937
2928.73014	0.10051
2926.67056	0.10154
2924.61097	0.10220
2922.55139	0.10254
2920.49180	0.10240
2918.43222	0.10174
2916.37263	0.10103
2914.31305	0.09994
2912.25346	0.09793
2910.19388	0.09584
2908.13429	0.09419
2906.07471	0.09277
2904.01512	0.09175
2901.95553	0.09123
2899.89595	0.09102
2897.83636	0.09071
2895.77678	0.09003
2893.71719	0.08903
2891.65761	0.08816
2889.59802	0.08786
2887.53844	0.08778
2885.47885	0.08758
2883.41927	0.08758
2881.35968	0.08785
2879.30010	0.08807
2877.24051	0.08822
2875.18093	0.08855
2873.12134	0.08904
2871.06176	0.08918
2869.00217	0.08862
2866.94259	0.08773
2864.88300	0.08717
2862.82342	0.08698
2860.76383	0.08691
2858.70425	0.08697
2856.64466	0.08715
2854.58508	0.08767
2852.52549	0.08846
2850.46590	0.08884
2848.40632	0.08838
2846.34673	0.08705
2844.28715	0.08519
2842.22756	0.08338
2840.16798	0.08201
2838.10839	0.08108
2836.04881	0.08040
2833.98922	0.08003
2831.92964	0.07995
2829.87005	0.07981
2827.81047	0.07956
2825.75088	0.07947
2823.69130	0.07932
2821.63171	0.07889
2819.57213	0.07841
2817.51254	0.07807
2815.45296	0.07785
2813.39337	0.07777
2811.33379	0.07768
2809.27420	0.07745
2807.21462	0.07733
2805.15503	0.07733
2803.09545	0.07713
2801.03586	0.07688
2798.97628	0.07686
2796.91669	0.07684
2794.85710	0.07671
2792.79752	0.07645
2790.73793	0.07606
2788.67835	0.07578
2786.61876	0.07566
2784.55918	0.07561
2782.49959	0.07544
2780.44001	0.07521
2778.38042	0.07522
2776.32084	0.07515
2774.26125	0.07495
2772.20167	0.07510
2770.14208	0.07513
2768.08250	0.07471
2766.02291	0.07443
2763.96333	0.07430
2761.90374	0.07396
2759.84416	0.07358
2757.78457	0.07341
2755.72499	0.07333
2753.66540	0.07326
2751.60582	0.07328
2749.54623	0.07342
2747.48665	0.07322
2745.42706	0.07259
2743.36747	0.07206
2741.30789	0.07181
2739.24830	0.07177
2737.18872	0.07178
2735.12913	0.07154
2733.06955	0.07126
2731.00996	0.07121
2728.95038	0.07125
2726.89079	0.07124
2724.83121	0.07110
2722.77162	0.07083
2720.71204	0.07060
2718.65245	0.07052
2716.59287	0.07046
2714.53328	0.07027
2712.47370	0.07007
2710.41411	0.06985
2708.35453	0.06964
2706.29494	0.06953
2704.23536	0.06930
2702.17577	0.06887
2700.11619	0.06846
2698.05660	0.06822
2695.99702	0.06818
2693.93743	0.06828
2691.87785	0.06828
2689.81826	0.06806
2687.75867	0.06777
2685.69909	0.06757
2683.63950	0.06754
2681.57992	0.06765
2679.52033	0.06754
2677.46075	0.06722
2675.40116	0.06705
2673.34158	0.06698
2671.28199	0.06684
2669.22241	0.06679
2667.16282	0.06699
2665.10324	0.06720
2663.04365	0.06713
2660.98407	0.06698
2658.92448	0.06699
2656.86490	0.06681
2654.80531	0.06645
2652.74573	0.06636
2650.68614	0.06635
2648.62656	0.06599
2646.56697	0.06553
2644.50739	0.06542
2642.44780	0.06544
2640.38822	0.06529
2638.32863	0.06509
2636.26904	0.06499
2634.20946	0.06496
2632.14987	0.06485
2630.09029	0.06464
2628.03070	0.06433
2625.97112	0.06394
2623.91153	0.06371
2621.85195	0.06378
2619.79236	0.06383
2617.73278	0.06356
2615.67319	0.06324
2613.61361	0.06300
2611.55402	0.06281
2609.49444	0.06288
2607.43485	0.06294
2605.37527	0.06288
2603.31568	0.06287
2601.25610	0.06273
2599.19651	0.06243
2597.13693	0.06207
2595.07734	0.06175
2593.01776	0.06155
2590.95817	0.06157
2588.89859	0.06178
2586.83900	0.06185
2584.77942	0.06159
2582.71983	0.06125
2580.66024	0.06097
2578.60066	0.06066
2576.54107	0.06031
2574.48149	0.06021
2572.42190	0.06035
2570.36232	0.06028
2568.30273	0.05999
2566.24315	0.05976
2564.18356	0.05950
2562.12398	0.05920
2560.06439	0.05896
2558.00481	0.05875
2555.94522	0.05866
2553.88564	0.05868
2551.82605	0.05851
2549.76647	0.05842
2547.70688	0.05855
2545.64730	0.05830
2543.58771	0.05769
2541.52813	0.05764
2539.46854	0.05803
2537.40896	0.05813
2535.34937	0.05833
2533.28979	0.05850
2531.23020	0.05781
2529.17062	0.05688
2527.11103	0.05674
2525.05144	0.05705
2522.99186	0.05746
2520.93227	0.05789
2518.87269	0.05781
2516.81310	0.05715
2514.75352	0.05661
2512.69393	0.05668
2510.63435	0.05686
2508.57476	0.05681
2506.51518	0.05688
2504.45559	0.05656
2502.39601	0.05565
2500.33642	0.05532
2498.27684	0.05579
2496.21725	0.05631
2494.15767	0.05649
2492.09808	0.05612
2490.03850	0.05556
2487.97891	0.05537
2485.91933	0.05548
2483.85974	0.05541
2481.80016	0.05515
2479.74057	0.05498
2477.68099	0.05486
2475.62140	0.05489
2473.56181	0.05506
2471.50223	0.05499
2469.44264	0.05484
2467.38306	0.05490
2465.32347	0.05489
2463.26389	0.05470
2461.20430	0.05453
2459.14472	0.05453
2457.08513	0.05470
2455.02555	0.05487
2452.96596	0.05484
2450.90638	0.05471
2448.84679	0.05467
2446.78721	0.05467
2444.72762	0.05470
2442.66804	0.05466
2440.60845	0.05442
2438.54887	0.05421
2436.48928	0.05420
2434.42970	0.05393
2432.37011	0.05344
2430.31053	0.05341
2428.25094	0.05354
2426.19136	0.05343
2424.13177	0.05320
2422.07219	0.05297
2420.01260	0.05285
2417.95301	0.05277
2415.89343	0.05250
2413.83384	0.05227
2411.77426	0.05248
2409.71467	0.05282
2407.65509	0.05278
2405.59550	0.05235
2403.53592	0.05202
2401.47633	0.05203
2399.41675	0.05218
2397.35716	0.05227
2395.29758	0.05231
2393.23799	0.05220
2391.17841	0.05206
2389.11882	0.05210
2387.05924	0.05213
2384.99965	0.05199
2382.94007	0.05187
2380.88048	0.05187
2378.82090	0.05199
2376.76131	0.05200
2374.70173	0.05156
2372.64214	0.05082
2370.58256	0.05054
2368.52297	0.05085
2366.46338	0.05123
2364.40380	0.05169
2362.34421	0.05229
2360.28463	0.05249
2358.22504	0.05210
2356.16546	0.05158
2354.10587	0.05130
2352.04629	0.05150
2349.98670	0.05178
2347.92712	0.05168
2345.86753	0.05144
2343.80795	0.05125
2341.74836	0.05120
2339.68878	0.05156
2337.62919	0.05170
2335.56961	0.05119
2333.51002	0.05072
2331.45044	0.05084
2329.39085	0.05118
2327.33127	0.05170
2325.27168	0.05216
2323.21210	0.05173
2321.15251	0.05095
2319.09293	0.05091
2317.03334	0.05124
2314.97376	0.05128
2312.91417	0.05108
2310.85458	0.05060
2308.79500	0.05010
2306.73541	0.05005
2304.67583	0.05022
2302.61624	0.05029
2300.55666	0.05032
2298.49707	0.05023
2296.43749	0.04994
2294.37790	0.04985
2292.31832	0.05000
2290.25873	0.05008
2288.19915	0.04993
2286.13956	0.04960
2284.07998	0.04927
2282.02039	0.04881
2279.96081	0.04808
2277.90122	0.04743
2275.84164	0.04711
2273.78205	0.04688
2271.72247	0.04683
2269.66288	0.04679
2267.60330	0.04657
2265.54371	0.04669
2263.48413	0.04684
2261.42454	0.04681
2259.36495	0.04697
2257.30537	0.04685
2255.24578	0.04639
2253.18620	0.04603
2251.12661	0.04587
2249.06703	0.04594
2247.00744	0.04566
2244.94786	0.04509
2242.88827	0.04502
2240.82869	0.04515
2238.76910	0.04523
2236.70952	0.04552
2234.64993	0.04541
2232.59035	0.04482
2230.53076	0.04460
2228.47118	0.04419
2226.41159	0.04311
2224.35201	0.04227
2222.29242	0.04212
2220.23284	0.04235
2218.17325	0.04234
2216.11367	0.04202
2214.05408	0.04181
2211.99450	0.04158
2209.93491	0.04115
2207.87533	0.04090
2205.81574	0.04130
2203.75615	0.04198
2201.69657	0.04229
2199.63698	0.04220
2197.57740	0.04192
2195.51781	0.04159
2193.45823	0.04125
2191.39864	0.04116
2189.33906	0.04129
2187.27947	0.04041
2185.21989	0.03889
2183.16030	0.03815
2181.10072	0.03841
2179.04113	0.03953
2176.98155	0.04044
2174.92196	0.04088
2172.86238	0.04169
2170.80279	0.04193
2168.74321	0.04025
2166.68362	0.03826
2164.62404	0.03796
2162.56445	0.03756
2160.50487	0.03570
2158.44528	0.03388
2156.38570	0.03307
2154.32611	0.03368
2152.26652	0.03563
2150.20694	0.03727
2148.14735	0.03778
2146.08777	0.03809
2144.02818	0.03814
2141.96860	0.03769
2139.90901	0.03780
2137.84943	0.03847
2135.78984	0.03840
2133.73026	0.03776
2131.67067	0.03740
2129.61109	0.03752
2127.55150	0.03823
2125.49192	0.03891
2123.43233	0.03921
2121.37275	0.03977
2119.31316	0.04023
2117.25358	0.04048
2115.19399	0.04094
2113.13441	0.04133
2111.07482	0.04145
2109.01524	0.04133
2106.95565	0.04122
2104.89607	0.04116
2102.83648	0.04071
2100.77690	0.03992
2098.71731	0.03942
2096.65772	0.03917
2094.59814	0.03890
2092.53855	0.03848
2090.47897	0.03803
2088.41938	0.03830
2086.35980	0.03899
2084.30021	0.03912
2082.24063	0.03883
2080.18104	0.03874
2078.12146	0.03862
2076.06187	0.03816
2074.00229	0.03804
2071.94270	0.03827
2069.88312	0.03797
2067.82353	0.03746
2065.76395	0.03758
2063.70436	0.03797
2061.64478	0.03785
2059.58519	0.03756
2057.52561	0.03781
2055.46602	0.03815
2053.40644	0.03842
2051.34685	0.03879
2049.28727	0.03803
2047.22768	0.03618
2045.16810	0.03533
2043.10851	0.03548
2041.04892	0.03475
2038.98934	0.03371
2036.92975	0.03379
2034.87017	0.03413
2032.81058	0.03376
2030.75100	0.03300
2028.69141	0.03320
2026.63183	0.03441
2024.57224	0.03473
2022.51266	0.03329
2020.45307	0.03122
2018.39349	0.03057
2016.33390	0.03136
2014.27432	0.03208
2012.21473	0.03279
2010.15515	0.03362
2008.09556	0.03352
2006.03598	0.03292
2003.97639	0.03259
2001.91681	0.03210
1999.85722	0.03197
1997.79764	0.03238
1995.73805	0.03238
1993.67847	0.03185
1991.61888	0.03167
1989.55929	0.03245
1987.49971	0.03354
1985.44012	0.03407
1983.38054	0.03379
1981.32095	0.03298
1979.26137	0.03225
1977.20178	0.03144
1975.14220	0.03024
1973.08261	0.02950
1971.02303	0.02949
1968.96344	0.02977
1966.90386	0.02984
1964.84427	0.02941
1962.78469	0.02870
1960.72510	0.02832
1958.66552	0.02915
1956.60593	0.03046
1954.54635	0.03082
1952.48676	0.03076
1950.42718	0.03127
1948.36759	0.03144
1946.30801	0.03054
1944.24842	0.03006
1942.18884	0.03081
1940.12925	0.03117
1938.06967	0.03072
1936.01008	0.03077
1933.95049	0.03111
1931.89091	0.03122
1929.83132	0.03109
1927.77174	0.03067
1925.71215	0.03030
1923.65257	0.03026
1921.59298	0.03047
1919.53340	0.03074
1917.47381	0.03076
1915.41423	0.03058
1913.35464	0.03045
1911.29506	0.03034
1909.23547	0.03018
1907.17589	0.03014
1905.11630	0.03016
1903.05672	0.03000
1900.99713	0.02973
1898.93755	0.02961
1896.87796	0.02967
1894.81838	0.02978
1892.75879	0.02973
1890.69921	0.02949
1888.63962	0.02915
1886.58004	0.02885
1884.52045	0.02875
1882.46086	0.02887
1880.40128	0.02889
1878.34169	0.02869
1876.28211	0.02846
1874.22252	0.02824
1872.16294	0.02810
1870.10335	0.02827
1868.04377	0.02847
1865.98418	0.02839
1863.92460	0.02813
1861.86501	0.02766
1859.80543	0.02732
1857.74584	0.02732
1855.68626	0.02729
1853.62667	0.02729
1851.56709	0.02744
1849.50750	0.02734
1847.44792	0.02673
1845.38833	0.02605
1843.32875	0.02591
1841.26916	0.02619
1839.20958	0.02659
1837.14999	0.02678
1835.09041	0.02654
1833.03082	0.02621
1830.97124	0.02588
1828.91165	0.02535
1826.85206	0.02487
1824.79248	0.02478
1822.73289	0.02492
1820.67331	0.02491
1818.61372	0.02471
1816.55414	0.02449
1814.49455	0.02432
1812.43497	0.02418
1810.37538	0.02409
1808.31580	0.02408
1806.25621	0.02399
1804.19663	0.02386
1802.13704	0.02378
1800.07746	0.02370
1798.01787	0.02346
1795.95829	0.02319
1793.89870	0.02298
1791.83912	0.02262
1789.77953	0.02235
1787.71995	0.02240
1785.66036	0.02241
1783.60078	0.02212
1781.54119	0.02172
1779.48161	0.02143
1777.42202	0.02130
1775.36243	0.02118
1773.30285	0.02090
1771.24326	0.02064
1769.18368	0.02063
1767.12409	0.02048
1765.06451	0.02013
1763.00492	0.01991
1760.94534	0.01976
1758.88575	0.01952
1756.82617	0.01928
1754.76658	0.01905
1752.70700	0.01882
1750.64741	0.01869
1748.58783	0.01864
1746.52824	0.01851
1744.46866	0.01822
1742.40907	0.01787
1740.34949	0.01766
1738.28990	0.01764
1736.23032	0.01767
1734.17073	0.01763
1732.11115	0.01742
1730.05156	0.01714
1727.99198	0.01696
1725.93239	0.01686
1723.87281	0.01692
1721.81322	0.01707
1719.75363	0.01727
1717.69405	0.01781
1715.63446	0.01888
1713.57488	0.02030
1711.51529	0.02226
1709.45571	0.02505
1707.39612	0.02934
1705.33654	0.03602
1703.27695	0.04345
1701.21737	0.05034
1699.15778	0.05546
1697.09820	0.05683
1695.03861	0.05637
1692.97903	0.05591
1690.91944	0.05594
1688.85986	0.05666
1686.80027	0.05791
1684.74069	0.05994
1682.68110	0.06254
1680.62152	0.06487
1678.56193	0.06726
1676.50235	0.07002
1674.44276	0.07318
1672.38318	0.07604
1670.32359	0.07908
1668.26401	0.08284
1666.20442	0.08615
1664.14483	0.08936
1662.08525	0.09352
1660.02566	0.09784
1657.96608	0.10151
1655.90649	0.10467
1653.84691	0.10904
1651.78732	0.11473
1649.72774	0.11808
1647.66815	0.12140
1645.60857	0.12646
1643.54898	0.13114
1641.48940	0.13531
1639.42981	0.13986
1637.37023	0.14528
1635.31064	0.15245
1633.25106	0.15923
1631.19147	0.16455
1629.13189	0.17018
1627.07230	0.17625
1625.01272	0.18201
1622.95313	0.18738
1620.89355	0.19109
1618.83396	0.19264
1616.77438	0.19283
1614.71479	0.19144
1612.65520	0.18850
1610.59562	0.18423
1608.53603	0.17860
1606.47645	0.17187
1604.41686	0.16449
1602.35728	0.15679
1600.29769	0.14920
1598.23811	0.14209
1596.17852	0.13542
1594.11894	0.12915
1592.05935	0.12330
1589.99977	0.11768
1587.94018	0.11245
1585.88060	0.10796
1583.82101	0.10429
1581.76143	0.10137
1579.70184	0.09914
1577.64226	0.09755
1575.58267	0.09659
1573.52309	0.09616
1571.46350	0.09625
1569.40392	0.09723
1567.34433	0.09883
1565.28475	0.10073
1563.22516	0.10269
1561.16558	0.10467
1559.10599	0.10826
1557.04640	0.11257
1554.98682	0.11549
1552.92723	0.11812
1550.86765	0.12081
1548.80806	0.12376
1546.74848	0.12672
1544.68889	0.12970
1542.62931	0.13299
1540.56972	0.13740
1538.51014	0.14231
1536.45055	0.14534
1534.39097	0.14807
1532.33138	0.15160
1530.27180	0.15471
1528.21221	0.15751
1526.15263	0.16057
1524.09304	0.16342
1522.03346	0.16677
1519.97387	0.17103
1517.91429	0.17539
1515.85470	0.17978
1513.79512	0.18300
1511.73553	0.18431
1509.67595	0.18409
1507.61636	0.18283
1505.55677	0.18102
1503.49719	0.17869
1501.43760	0.17578
1499.37802	0.17230
1497.31843	0.16822
1495.25885	0.16379
1493.19926	0.15937
1491.13968	0.15443
1489.08009	0.14883
1487.02051	0.14352
1484.96092	0.13869
1482.90134	0.13410
1480.84175	0.12961
1478.78217	0.12548
1476.72258	0.12190
1474.66300	0.11879
1472.60341	0.11603
1470.54383	0.11368
1468.48424	0.11170
1466.42466	0.10989
1464.36507	0.10834
1462.30549	0.10719
1460.24590	0.10655
1458.18632	0.10703
1456.12673	0.10947
1454.06715	0.11258
1452.00756	0.11559
1449.94797	0.11880
1447.88839	0.12209
1445.82880	0.12485
1443.76922	0.12663
1441.70963	0.12768
1439.65005	0.12801
1437.59046	0.12734
1435.53088	0.12534
1433.47129	0.12244
1431.41171	0.11907
1429.35212	0.11541
1427.29254	0.11215
1425.23295	0.10960
1423.17337	0.10776
1421.11378	0.10653
1419.05420	0.10577
1416.99461	0.10542
1414.93503	0.10528
1412.87544	0.10534
1410.81586	0.10556
1408.75627	0.10566
1406.69669	0.10553
1404.63710	0.10526
1402.57752	0.10480
1400.51793	0.10404
1398.45834	0.10310
1396.39876	0.10218
1394.33917	0.10142
1392.27959	0.10082
1390.22000	0.10030
1388.16042	0.09980
1386.10083	0.09924
1384.04125	0.09862
1381.98166	0.09798
1379.92208	0.09741
1377.86249	0.09693
1375.80291	0.09659
1373.74332	0.09650
1371.68374	0.09666
1369.62415	0.09690
1367.56457	0.09688
1365.50498	0.09626
1363.44540	0.09503
1361.38581	0.09344
1359.32623	0.09183
1357.26664	0.09032
1355.20706	0.08895
1353.14747	0.08784
1351.08789	0.08702
1349.02830	0.08641
1346.96872	0.08596
1344.90913	0.08573
1342.84954	0.08576
1340.78996	0.08586
1338.73037	0.08589
1336.67079	0.08588
1334.61120	0.08581
1332.55162	0.08553
1330.49203	0.08504
1328.43245	0.08441
1326.37286	0.08362
1324.31328	0.08278
1322.25369	0.08198
1320.19411	0.08127
1318.13452	0.08067
1316.07494	0.08020
1314.01535	0.07975
1311.95577	0.07930
1309.89618	0.07894
1307.83660	0.07862
1305.77701	0.07825
1303.71743	0.07781
1301.65784	0.07733
1299.59826	0.07681
1297.53867	0.07621
1295.47909	0.07564
1293.41950	0.07528
1291.35991	0.07509
1289.30033	0.07485
1287.24074	0.07457
1285.18116	0.07446
1283.12157	0.07451
1281.06199	0.07466
1279.00240	0.07511
1276.94282	0.07599
1274.88323	0.07730
1272.82365	0.07905
1270.76406	0.08104
1268.70448	0.08303
1266.64489	0.08493
1264.58531	0.08656
1262.52572	0.08779
1260.46614	0.08858
1258.40655	0.08892
1256.34697	0.08891
1254.28738	0.08878
1252.22780	0.08869
1250.16821	0.08883
1248.10863	0.08925
1246.04904	0.08993
1243.98946	0.09087
1241.92987	0.09199
1239.87029	0.09331
1237.81070	0.09497
1235.75111	0.09695
1233.69153	0.09896
1231.63194	0.10076
1229.57236	0.10217
1227.51277	0.10295
1225.45319	0.10313
1223.39360	0.10288
1221.33402	0.10226
1219.27443	0.10145
1217.21485	0.10049
1215.15526	0.09920
1213.09568	0.09753
1211.03609	0.09561
1208.97651	0.09346
1206.91692	0.09107
1204.85734	0.08858
1202.79775	0.08618
1200.73817	0.08391
1198.67858	0.08173
1196.61900	0.07972
1194.55941	0.07806
1192.49983	0.07662
1190.44024	0.07522
1188.38066	0.07392
1186.32107	0.07278
1184.26149	0.07186
1182.20190	0.07130
1180.14231	0.07112
1178.08273	0.07130
1176.02314	0.07194
1173.96356	0.07295
1171.90397	0.07404
1169.84439	0.07492
1167.78480	0.07538
1165.72522	0.07548
1163.66563	0.07550
1161.60605	0.07545
1159.54646	0.07514
1157.48688	0.07455
1155.42729	0.07375
1153.36771	0.07275
1151.30812	0.07164
1149.24854	0.07046
1147.18895	0.06923
1145.12937	0.06803
1143.06978	0.06682
1141.01020	0.06564
1138.95061	0.06465
1136.89103	0.06377
1134.83144	0.06287
1132.77186	0.06203
1130.71227	0.06136
1128.65268	0.06086
1126.59310	0.06040
1124.53351	0.05988
1122.47393	0.05937
1120.41434	0.05894
1118.35476	0.05851
1116.29517	0.05811
1114.23559	0.05778
1112.17600	0.05751
1110.11642	0.05734
1108.05683	0.05725
1105.99725	0.05717
1103.93766	0.05700
1101.87808	0.05670
1099.81849	0.05633
1097.75891	0.05592
1095.69932	0.05552
1093.63974	0.05525
1091.58015	0.05521
1089.52057	0.05542
1087.46098	0.05582
1085.40140	0.05642
1083.34181	0.05739
1081.28223	0.05871
1079.22264	0.06007
1077.16306	0.06136
1075.10347	0.06268
1073.04388	0.06387
1070.98430	0.06477
1068.92471	0.06543
1066.86513	0.06588
1064.80554	0.06608
1062.74596	0.06611
1060.68637	0.06605
1058.62679	0.06575
1056.56720	0.06524
1054.50762	0.06460
1052.44803	0.06391
1050.38845	0.06330
1048.32886	0.06295
1046.26928	0.06276
1044.20969	0.06249
1042.15011	0.06207
1040.09052	0.06164
1038.03094	0.06116
1035.97135	0.06048
1033.91177	0.05961
1031.85218	0.05868
1029.79260	0.05774
1027.73301	0.05688
1025.67343	0.05605
1023.61384	0.05529
1021.55425	0.05477
1019.49467	0.05454
1017.43508	0.05443
1015.37550	0.05430
1013.31591	0.05419
1011.25633	0.05416
1009.19674	0.05416
1007.13716	0.05424
1005.07757	0.05448
1003.01799	0.05488
1000.95840	0.05531
998.89882	0.05565
996.83923	0.05583
994.77965	0.05566
992.72006	0.05499
990.66048	0.05394
988.60089	0.05279
986.54131	0.05188
984.48172	0.05144
982.42214	0.05148
980.36255	0.05182
978.30297	0.05231
976.24338	0.05279
974.18380	0.05294
972.12421	0.05266
970.06463	0.05205
968.00504	0.05112
965.94545	0.05007
963.88587	0.04918
961.82628	0.04840
959.76670	0.04768
957.70711	0.04706
955.64753	0.04655
953.58794	0.04608
951.52836	0.04557
949.46877	0.04511
947.40919	0.04479
945.34960	0.04448
943.29002	0.04415
941.23043	0.04392
939.17085	0.04375
937.11126	0.04354
935.05168	0.04337
932.99209	0.04328
930.93251	0.04322
928.87292	0.04322
926.81334	0.04314
924.75375	0.04285
922.69417	0.04238
920.63458	0.04177
918.57500	0.04117
916.51541	0.04065
914.45582	0.04016
912.39624	0.03972
910.33665	0.03933
908.27707	0.03884
906.21748	0.03834
904.15790	0.03808
902.09831	0.03798
900.03873	0.03783
897.97914	0.03766
895.91956	0.03753
893.85997	0.03745
891.80039	0.03735
889.74080	0.03711
887.68122	0.03679
885.62163	0.03660
883.56205	0.03654
881.50246	0.03639
879.44288	0.03609
877.38329	0.03587
875.32371	0.03574
873.26412	0.03550
871.20454	0.03513
869.14495	0.03467
867.08537	0.03424
865.02578	0.03404
862.96620	0.03411
860.90661	0.03426
858.84702	0.03442
856.78744	0.03463
854.72785	0.03485
852.66827	0.03501
850.60868	0.03516
848.54910	0.03515
846.48951	0.03487
844.42993	0.03443
842.37034	0.03419
840.31076	0.03431
838.25117	0.03454
836.19159	0.03464
834.13200	0.03470
832.07242	0.03481
830.01283	0.03499
827.95325	0.03516
825.89366	0.03521
823.83408	0.03508
821.77449	0.03482
819.71491	0.03456
817.65532	0.03439
815.59574	0.03420
813.53615	0.03396
811.47657	0.03379
809.41698	0.03374
807.35740	0.03358
805.29781	0.03328
803.23822	0.03311
801.17864	0.03303
799.11905	0.03275
797.05947	0.03250
794.99988	0.03245
792.94030	0.03244
790.88071	0.03255
788.82113	0.03283
786.76154	0.03310
784.70196	0.03334
782.64237	0.03350
780.58279	0.03354
778.52320	0.03366
776.46362	0.03396
774.40403	0.03438
772.34445	0.03482
770.28486	0.03523
768.22528	0.03564
766.16569	0.03604
764.10611	0.03630
762.04652	0.03636
759.98694	0.03642
757.92735	0.03660
755.86777	0.03676
753.80818	0.03692
751.74859	0.03723
749.68901	0.03765
747.62942	0.03817
745.56984	0.03876
743.51025	0.03939
741.45067	0.04014
739.39108	0.04103
737.33150	0.04196
735.27191	0.04281
733.21233	0.04368
731.15274	0.04465
729.09316	0.04561
727.03357	0.04648
724.97399	0.04733
722.91440	0.04820
720.85482	0.04902
718.79523	0.04974
716.73565	0.05042
714.67606	0.05109
712.61648	0.05165
710.55689	0.05216
708.49731	0.05274
706.43772	0.05337
704.37814	0.05402
702.31855	0.05465
700.25897	0.05518
698.19938	0.05570
696.13979	0.05624
694.08021	0.05659
692.02062	0.05677
689.96104	0.05690
687.90145	0.05695
685.84187	0.05705
683.78228	0.05727
681.72270	0.05737
679.66311	0.05727
677.60353	0.05709
675.54394	0.05698
673.48436	0.05691
671.42477	0.05680
669.36519	0.05678
667.30560	0.05693
665.24602	0.05702
663.18643	0.05691
661.12685	0.05667
659.06726	0.05662
657.00768	0.05694
654.94809	0.05744
652.88851	0.05779
650.82892	0.05800
648.76934	0.05819
646.70975	0.05834
644.65016	0.05844
642.59058	0.05862
640.53099	0.05893
638.47141	0.05931
636.41182	0.05967
634.35224	0.05992
632.29265	0.06007
630.23307	0.06009
628.17348	0.05998
626.11390	0.05984
624.05431	0.05978
621.99473	0.05978
619.93514	0.05985
617.87556	0.05987
615.81597	0.05985
613.75639	0.05996
611.69680	0.06003
609.63722	0.05989
607.57763	0.05954
605.51805	0.05893
603.45846	0.05814
601.39888	0.05731
599.33929	0.05646
597.27971	0.05574
595.22012	0.05519
593.16054	0.05455
591.10095	0.05386
589.04136	0.05339
586.98178	0.05303
584.92219	0.05252
582.86261	0.05194
580.80302	0.05159
578.74344	0.05137
576.68385	0.05090
574.62427	0.05053
572.56468	0.05060
570.50510	0.05073
568.44551	0.05093
566.38593	0.05149
564.32634	0.05228
562.26676	0.05315
560.20717	0.05430
558.14759	0.05588
556.08800	0.05746
554.02842	0.05871
551.96883	0.05976
549.90925	0.06054
547.84966	0.06064
545.79008	0.06006
543.73049	0.05949
541.67091	0.05933
539.61132	0.05904
537.55173	0.05809
535.49215	0.05693
533.43256	0.05621
531.37298	0.05563
529.31339	0.05482
527.25381	0.05407
525.19422	0.05348
523.13464	0.05289
521.07505	0.05231
519.01547	0.05181
516.95588	0.05138
514.89630	0.05097
512.83671	0.05052
510.77713	0.05005
508.71754	0.04964
506.65796	0.04922
504.59837	0.04873
502.53879	0.04823
500.47920	0.04774
498.41962	0.04728
496.36003	0.04689
494.30045	0.04655
492.24086	0.04629
490.18128	0.04615
488.12169	0.04602
486.06211	0.04577
484.00252	0.04541
481.94293	0.04502
479.88335	0.04459
477.82376	0.04395
475.76418	0.04321
473.70459	0.04263
471.64501	0.04223
469.58542	0.04193
467.52584	0.04165
465.46625	0.04134
463.40667	0.04088
461.34708	0.04031
459.28750	0.04003
457.22791	0.04000
455.16833	0.03971
453.10874	0.03930
451.04916	0.03889
448.98957	0.03837
446.92999	0.03797
444.87040	0.03791
442.81082	0.03792
440.75123	0.03777
438.69165	0.03765
436.63206	0.03774
434.57248	0.03794
432.51289	0.03823
430.45330	0.03868
428.39372	0.03914
426.33413	0.03946
424.27455	0.03964
422.21496	0.03958
420.15538	0.03912
418.09579	0.03822
416.03621	0.03716
413.97662	0.03649
411.91704	0.03612
409.85745	0.03545
407.79787	0.03438
405.73828	0.03324
403.67870	0.03249
401.61911	0.03238
399.55953	0.03223
