3997.65486	0.05318
3995.59527	0.05320
3993.53569	0.05265
3991.47610	0.05229
3989.41652	0.05265
3987.35693	0.05317
3985.29735	0.05350
3983.23776	0.05347
3981.17817	0.05281
3979.11859	0.05230
3977.05900	0.05259
3974.99942	0.05297
3972.93983	0.05296
3970.88025	0.05264
3968.82066	0.05214
3966.76108	0.05215
3964.70149	0.05242
3962.64191	0.05176
3960.58232	0.05065
3958.52274	0.05050
3956.46315	0.05103
3954.40357	0.05127
3952.34398	0.05123
3950.28440	0.05131
3948.22481	0.05158
3946.16523	0.05186
3944.10564	0.05194
3942.04606	0.05165
3939.98647	0.05125
3937.92689	0.05131
3935.86730	0.05175
3933.80772	0.05202
3931.74813	0.05190
3929.68855	0.05158
3927.62896	0.05134
3925.56937	0.05150
3923.50979	0.05202
3921.45020	0.05214
3919.39062	0.05130
3917.33103	0.05012
3915.27145	0.04973
3913.21186	0.05033
3911.15228	0.05143
3909.09269	0.05224
3907.03311	0.05206
3904.97352	0.05136
3902.91394	0.05110
3900.85435	0.05105
3898.79477	0.05072
3896.73518	0.05032
3894.67560	0.05006
3892.61601	0.05006
3890.55643	0.05045
3888.49684	0.05101
3886.43726	0.05132
3884.37767	0.05115
3882.31809	0.05061
3880.25850	0.05012
3878.19892	0.05000
3876.13933	0.05003
3874.07974	0.04996
3872.02016	0.05004
3869.96057	0.05040
3867.90099	0.05051
3865.84140	0.05008
3863.78182	0.04950
3861.72223	0.04920
3859.66265	0.04936
3857.60306	0.04957
3855.54348	0.04915
3853.48389	0.04838
3851.42431	0.04827
3849.36472	0.04892
3847.30514	0.04959
3845.24555	0.04963
3843.18597	0.04912
3841.12638	0.04842
3839.06680	0.04793
3837.00721	0.04826
3834.94763	0.04896
3832.88804	0.04907
3830.82846	0.04887
3828.76887	0.04883
3826.70929	0.04879
3824.64970	0.04867
3822.59012	0.04882
3820.53053	0.04907
3818.47094	0.04876
3816.41136	0.04825
3814.35177	0.04825
3812.29219	0.04872
3810.23260	0.04916
3808.17302	0.04934
3806.11343	0.04919
3804.05385	0.04848
3801.99426	0.04767
3799.93468	0.04764
3797.87509	0.04808
3795.81551	0.04819
3793.75592	0.04808
3791.69634	0.04797
3789.63675	0.04764
3787.57717	0.04713
3785.51758	0.04691
3783.45800	0.04711
3781.39841	0.04755
3779.33883	0.04798
3777.27924	0.04818
3775.21966	0.04811
3773.16007	0.04797
3771.10049	0.04798
3769.04090	0.04806
3766.98132	0.04774
3764.92173	0.04686
3762.86214	0.04590
3760.80256	0.04561
3758.74297	0.04603
3756.68339	0.04633
3754.62380	0.04605
3752.56422	0.04547
3750.50463	0.04509
3748.44505	0.04499
3746.38546	0.04484
3744.32588	0.04493
3742.26629	0.04545
3740.20671	0.04578
3738.14712	0.04570
3736.08754	0.04545
3734.02795	0.04526
3731.96837	0.04532
3729.90878	0.04557
3727.84920	0.04573
3725.78961	0.04572
3723.73003	0.04554
3721.67044	0.04510
3719.61086	0.04466
3717.55127	0.04471
3715.49169	0.04525
3713.43210	0.04566
3711.37251	0.04563
3709.31293	0.04565
3707.25334	0.04580
3705.19376	0.04581
3703.13417	0.04583
3701.07459	0.04560
3699.01500	0.04492
3696.95542	0.04436
3694.89583	0.04425
3692.83625	0.04435
3690.77666	0.04468
3688.71708	0.04510
3686.65749	0.04507
3684.59791	0.04453
3682.53832	0.04401
3680.47874	0.04397
3678.41915	0.04420
3676.35957	0.04413
3674.29998	0.04387
3672.24040	0.04397
3670.18081	0.04447
3668.12123	0.04500
3666.06164	0.04506
3664.00206	0.04461
3661.94247	0.04407
3659.88289	0.04397
3657.82330	0.04423
3655.76371	0.04454
3653.70413	0.04477
3651.64454	0.04489
3649.58496	0.04538
3647.52537	0.04633
3645.46579	0.04678
3643.40620	0.04636
3641.34662	0.04579
3639.28703	0.04570
3637.22745	0.04574
3635.16786	0.04564
3633.10828	0.04588
3631.04869	0.04668
3628.98911	0.04730
3626.92952	0.04709
3624.86994	0.04642
3622.81035	0.04593
3620.75077	0.04616
3618.69118	0.04716
3616.63160	0.04795
3614.57201	0.04800
3612.51243	0.04778
3610.45284	0.04780
3608.39326	0.04810
3606.33367	0.04841
3604.27408	0.04881
3602.21450	0.04933
3600.15491	0.04963
3598.09533	0.04942
3596.03574	0.04886
3593.97616	0.04839
3591.91657	0.04841
3589.85699	0.04923
3587.79740	0.05049
3585.73782	0.05135
3583.67823	0.05157
3581.61865	0.05154
3579.55906	0.05175
3577.49948	0.05225
3575.43989	0.05263
3573.38031	0.05247
3571.32072	0.05210
3569.26114	0.05225
3567.20155	0.05292
3565.14197	0.05343
3563.08238	0.05368
3561.02280	0.05413
3558.96321	0.05457
3556.90363	0.05471
3554.84404	0.05488
3552.78446	0.05509
3550.72487	0.05511
3548.66528	0.05507
3546.60570	0.05520
3544.54611	0.05548
3542.48653	0.05592
3540.42694	0.05656
3538.36736	0.05715
3536.30777	0.05734
3534.24819	0.05718
3532.18860	0.05722
3530.12902	0.05771
3528.06943	0.05839
3526.00985	0.05887
3523.95026	0.05899
3521.89068	0.05923
3519.83109	0.06000
3517.77151	0.06096
3515.71192	0.06135
3513.65234	0.06103
3511.59275	0.06098
3509.53317	0.06148
3507.47358	0.06166
3505.41400	0.06142
3503.35441	0.06133
3501.29483	0.06146
3499.23524	0.06159
3497.17565	0.06181
3495.11607	0.06238
3493.05648	0.06295
3490.99690	0.06298
3488.93731	0.06281
3486.87773	0.06318
3484.81814	0.06388
3482.75856	0.06404
3480.69897	0.06375
3478.63939	0.06377
3476.57980	0.06424
3474.52022	0.06492
3472.46063	0.06556
3470.40105	0.06570
3468.34146	0.06513
3466.28188	0.06450
3464.22229	0.06433
3462.16271	0.06428
3460.10312	0.06444
3458.04354	0.06508
3455.98395	0.06564
3453.92437	0.06555
3451.86478	0.06522
3449.80520	0.06551
3447.74561	0.06619
3445.68603	0.06653
3443.62644	0.06647
3441.56685	0.06636
3439.50727	0.06645
3437.44768	0.06658
3435.38810	0.06661
3433.32851	0.06700
3431.26893	0.06785
3429.20934	0.06880
3427.14976	0.06967
3425.09017	0.07008
3423.03059	0.06989
3420.97100	0.06945
3418.91142	0.06952
3416.85183	0.07044
3414.79225	0.07148
3412.73266	0.07218
3410.67308	0.07272
3408.61349	0.07316
3406.55391	0.07342
3404.49432	0.07343
3402.43474	0.07335
3400.37515	0.07355
3398.31557	0.07408
3396.25598	0.07465
3394.19640	0.07517
3392.13681	0.07575
3390.07723	0.07622
3388.01764	0.07654
3385.95805	0.07698
3383.89847	0.07745
3381.83888	0.07760
3379.77930	0.07744
3377.71971	0.07723
3375.66013	0.07747
3373.60054	0.07843
3371.54096	0.07979
3369.48137	0.08092
3367.42179	0.08145
3365.36220	0.08153
3363.30262	0.08190
3361.24303	0.08289
3359.18345	0.08372
3357.12386	0.08416
3355.06428	0.08481
3353.00469	0.08589
3350.94511	0.08706
3348.88552	0.08799
3346.82594	0.08907
3344.76635	0.09065
3342.70677	0.09253
3340.64718	0.09457
3338.58760	0.09638
3336.52801	0.09758
3334.46842	0.09854
3332.40884	0.09980
3330.34925	0.10140
3328.28967	0.10350
3326.23008	0.10621
3324.17050	0.10904
3322.11091	0.11164
3320.05133	0.11398
3317.99174	0.11662
3315.93216	0.11990
3313.87257	0.12313
3311.81299	0.12592
3309.75340	0.12853
3307.69382	0.13124
3305.63423	0.13416
3303.57465	0.13727
3301.51506	0.14063
3299.45548	0.14416
3297.39589	0.14738
3295.33631	0.15023
3293.27672	0.15307
3291.21714	0.15584
3289.15755	0.15848
3287.09797	0.16092
3285.03838	0.16292
3282.97880	0.16450
3280.91921	0.16575
3278.85962	0.16664
3276.80004	0.16732
3274.74045	0.16787
3272.68087	0.16768
3270.62128	0.16623
3268.56170	0.16413
3266.50211	0.16228
3264.44253	0.16068
3262.38294	0.15889
3260.32336	0.15687
3258.26377	0.15478
3256.20419	0.15240
3254.14460	0.14967
3252.08502	0.14736
3250.02543	0.14581
3247.96585	0.14433
3245.90626	0.14227
3243.84668	0.13993
3241.78709	0.13812
3239.72751	0.13690
3237.66792	0.13567
3235.60834	0.13425
3233.54875	0.13292
3231.48917	0.13148
3229.42958	0.12971
3227.36999	0.12792
3225.31041	0.12627
3223.25082	0.12484
3221.19124	0.12370
3219.13165	0.12255
3217.07207	0.12116
3215.01248	0.11961
3212.95290	0.11814
3210.89331	0.11683
3208.83373	0.11548
3206.77414	0.11409
3204.71456	0.11296
3202.65497	0.11188
3200.59539	0.11061
3198.53580	0.10956
3196.47622	0.10870
3194.41663	0.10747
3192.35705	0.10612
3190.29746	0.10531
3188.23788	0.10488
3186.17829	0.10398
3184.11871	0.10238
3182.05912	0.10098
3179.99954	0.10011
3177.93995	0.09939
3175.88037	0.09882
3173.82078	0.09831
3171.76119	0.09741
3169.70161	0.09617
3167.64202	0.09519
3165.58244	0.09443
3163.52285	0.09354
3161.46327	0.09252
3159.40368	0.09152
3157.34410	0.09071
3155.28451	0.09008
3153.22493	0.08958
3151.16534	0.08896
3149.10576	0.08806
3147.04617	0.08735
3144.98659	0.08690
3142.92700	0.08624
3140.86742	0.08538
3138.80783	0.08489
3136.74825	0.08488
3134.68866	0.08476
3132.62908	0.08438
3130.56949	0.08398
3128.50991	0.08355
3126.45032	0.08326
3124.39074	0.08310
3122.33115	0.08295
3120.27156	0.08291
3118.21198	0.08285
3116.15239	0.08267
3114.09281	0.08264
3112.03322	0.08280
3109.97364	0.08290
3107.91405	0.08278
3105.85447	0.08262
3103.79488	0.08269
3101.73530	0.08303
3099.67571	0.08334
3097.61613	0.08351
3095.55654	0.08383
3093.49696	0.08417
3091.43737	0.08428
3089.37779	0.08437
3087.31820	0.08464
3085.25862	0.08513
3083.19903	0.08589
3081.13945	0.08655
3079.07986	0.08665
3077.02028	0.08630
3074.96069	0.08591
3072.90111	0.08562
3070.84152	0.08551
3068.78194	0.08558
3066.72235	0.08560
3064.66276	0.08564
3062.60318	0.08576
3060.54359	0.08549
3058.48401	0.08471
3056.42442	0.08403
3054.36484	0.08363
3052.30525	0.08327
3050.24567	0.08295
3048.18608	0.08251
3046.12650	0.08170
3044.06691	0.08089
3042.00733	0.08052
3039.94774	0.08024
3037.88816	0.07962
3035.82857	0.07892
3033.76899	0.07818
3031.70940	0.07727
3029.64982	0.07660
3027.59023	0.07632
3025.53065	0.07603
3023.47106	0.07559
3021.41148	0.07498
3019.35189	0.07424
3017.29231	0.07362
3015.23272	0.07345
3013.17313	0.07368
3011.11355	0.07387
3009.05396	0.07354
3006.99438	0.07296
3004.93479	0.07271
3002.87521	0.07275
3000.81562	0.07295
2998.75604	0.07327
2996.69645	0.07345
2994.63687	0.07355
2992.57728	0.07388
2990.51770	0.07441
2988.45811	0.07489
2986.39853	0.07537
2984.33894	0.07590
2982.27936	0.07630
2980.21977	0.07658
2978.16019	0.07673
2976.10060	0.07698
2974.04102	0.07728
2971.98143	0.07721
2969.92185	0.07710
2967.86226	0.07731
2965.80268	0.07767
2963.74309	0.07784
2961.68351	0.07749
2959.62392	0.07684
2957.56433	0.07625
2955.50475	0.07578
2953.44516	0.07563
2951.38558	0.07587
2949.32599	0.07627
2947.26641	0.07657
2945.20682	0.07691
2943.14724	0.07750
2941.08765	0.07833
2939.02807	0.07943
2936.96848	0.08053
2934.90890	0.08158
2932.84931	0.08253
2930.78973	0.08304
2928.73014	0.08320
2926.67056	0.08329
2924.61097	0.08353
2922.55139	0.08357
2920.49180	0.08295
2918.43222	0.08226
2916.37263	0.08171
2914.31305	0.08081
2912.25346	0.07945
2910.19388	0.07783
2908.13429	0.07646
2906.07471	0.07572
2904.01512	0.07515
2901.95553	0.07436
2899.89595	0.07362
2897.83636	0.07320
2895.77678	0.07290
2893.71719	0.07256
2891.65761	0.07233
2889.59802	0.07224
2887.53844	0.07206
2885.47885	0.07180
2883.41927	0.07180
2881.35968	0.07187
2879.30010	0.07181
2877.24051	0.07194
2875.18093	0.07238
2873.12134	0.07278
2871.06176	0.07270
2869.00217	0.07210
2866.94259	0.07136
2864.88300	0.07073
2862.82342	0.07032
2860.76383	0.07017
2858.70425	0.07027
2856.64466	0.07063
2854.58508	0.07097
2852.52549	0.07102
2850.46590	0.07059
2848.40632	0.06959
2846.34673	0.06850
2844.28715	0.06774
2842.22756	0.06708
2840.16798	0.06641
2838.10839	0.06581
2836.04881	0.06526
2833.98922	0.06485
2831.92964	0.06466
2829.87005	0.06447
2827.81047	0.06409
2825.75088	0.06378
2823.69130	0.06373
2821.63171	0.06361
2819.57213	0.06333
2817.51254	0.06300
2815.45296	0.06275
2813.39337	0.06279
2811.33379	0.06290
2809.27420	0.06280
2807.21462	0.06253
2805.15503	0.06229
2803.09545	0.06211
2801.03586	0.06194
2798.97628	0.06179
2796.91669	0.06177
2794.85710	0.06178
2792.79752	0.06165
2790.73793	0.06142
2788.67835	0.06117
2786.61876	0.06110
2784.55918	0.06114
2782.49959	0.06096
2780.44001	0.06072
2778.38042	0.06057
2776.32084	0.06049
2774.26125	0.06040
2772.20167	0.06032
2770.14208	0.06025
2768.08250	0.05997
2766.02291	0.05963
2763.96333	0.05967
2761.90374	0.05975
2759.84416	0.05948
2757.78457	0.05916
2755.72499	0.05901
2753.66540	0.05898
2751.60582	0.05916
2749.54623	0.05930
2747.48665	0.05908
2745.42706	0.05854
2743.36747	0.05812
2741.30789	0.05801
2739.24830	0.05791
2737.18872	0.05772
2735.12913	0.05756
2733.06955	0.05739
2731.00996	0.05718
2728.95038	0.05692
2726.89079	0.05667
2724.83121	0.05658
2722.77162	0.05658
2720.71204	0.05641
2718.65245	0.05623
2716.59287	0.05616
2714.53328	0.05594
2712.47370	0.05568
2710.41411	0.05561
2708.35453	0.05561
2706.29494	0.05558
2704.23536	0.05555
2702.17577	0.05547
2700.11619	0.05522
2698.05660	0.05495
2695.99702	0.05490
2693.93743	0.05485
2691.87785	0.05449
2689.81826	0.05415
2687.75867	0.05407
2685.69909	0.05405
2683.63950	0.05410
2681.57992	0.05434
2679.52033	0.05466
2677.46075	0.05472
2675.40116	0.05424
2673.34158	0.05369
2671.28199	0.05357
2669.22241	0.05352
2667.16282	0.05327
2665.10324	0.05320
2663.04365	0.05337
2660.98407	0.05357
2658.92448	0.05352
2656.86490	0.05315
2654.80531	0.05291
2652.74573	0.05308
2650.68614	0.05329
2648.62656	0.05319
2646.56697	0.05292
2644.50739	0.05274
2642.44780	0.05259
2640.38822	0.05248
2638.32863	0.05260
2636.26904	0.05264
2634.20946	0.05235
2632.14987	0.05199
2630.09029	0.05183
2628.03070	0.05198
2625.97112	0.05210
2623.91153	0.05199
2621.85195	0.05175
2619.79236	0.05132
2617.73278	0.05089
2615.67319	0.05066
2613.61361	0.05042
2611.55402	0.05022
2609.49444	0.05016
2607.43485	0.05004
2605.37527	0.04981
2603.31568	0.04958
2601.25610	0.04944
2599.19651	0.04939
2597.13693	0.04922
2595.07734	0.04891
2593.01776	0.04857
2590.95817	0.04840
2588.89859	0.04848
2586.83900	0.04861
2584.77942	0.04850
2582.71983	0.04815
2580.66024	0.04779
2578.60066	0.04755
2576.54107	0.04755
2574.48149	0.04767
2572.42190	0.04760
2570.36232	0.04759
2568.30273	0.04775
2566.24315	0.04768
2564.18356	0.04725
2562.12398	0.04688
2560.06439	0.04683
2558.00481	0.04693
2555.94522	0.04688
2553.88564	0.04655
2551.82605	0.04606
2549.76647	0.04577
2547.70688	0.04583
2545.64730	0.04587
2543.58771	0.04588
2541.52813	0.04582
2539.46854	0.04558
2537.40896	0.04538
2535.34937	0.04504
2533.28979	0.04473
2531.23020	0.04474
2529.17062	0.04477
2527.11103	0.04480
2525.05144	0.04498
2522.99186	0.04507
2520.93227	0.04492
2518.87269	0.04460
2516.81310	0.04424
2514.75352	0.04403
2512.69393	0.04414
2510.63435	0.04445
2508.57476	0.04460
2506.51518	0.04458
2504.45559	0.04440
2502.39601	0.04422
2500.33642	0.04418
2498.27684	0.04410
2496.21725	0.04405
2494.15767	0.04411
2492.09808	0.04384
2490.03850	0.04327
2487.97891	0.04312
2485.91933	0.04331
2483.85974	0.04347
2481.80016	0.04366
2479.74057	0.04378
2477.68099	0.04355
2475.62140	0.04306
2473.56181	0.04290
2471.50223	0.04312
2469.44264	0.04316
2467.38306	0.04292
2465.32347	0.04283
2463.26389	0.04311
2461.20430	0.04355
2459.14472	0.04378
2457.08513	0.04367
2455.02555	0.04325
2452.96596	0.04277
2450.90638	0.04254
2448.84679	0.04253
2446.78721	0.04251
2444.72762	0.04228
2442.66804	0.04220
2440.60845	0.04235
2438.54887	0.04239
2436.48928	0.04243
2434.42970	0.04267
2432.37011	0.04291
2430.31053	0.04303
2428.25094	0.04303
2426.19136	0.04274
2424.13177	0.04227
2422.07219	0.04195
2420.01260	0.04185
2417.95301	0.04179
2415.89343	0.04171
2413.83384	0.04161
2411.77426	0.04143
2409.71467	0.04112
2407.65509	0.04083
2405.59550	0.04065
2403.53592	0.04054
2401.47633	0.04084
2399.41675	0.04162
2397.35716	0.04172
2395.29758	0.04118
2393.23799	0.04079
2391.17841	0.04081
2389.11882	0.04087
2387.05924	0.04077
2384.99965	0.04060
2382.94007	0.04042
2380.88048	0.04042
2378.82090	0.04090
2376.76131	0.04168
2374.70173	0.04233
2372.64214	0.04281
2370.58256	0.04340
2368.52297	0.04410
2366.46338	0.04457
2364.40380	0.04468
2362.34421	0.04457
2360.28463	0.04471
2358.22504	0.04505
2356.16546	0.04483
2354.10587	0.04382
2352.04629	0.04255
2349.98670	0.04169
2347.92712	0.04171
2345.86753	0.04249
2343.80795	0.04343
2341.74836	0.04409
2339.68878	0.04431
2337.62919	0.04421
2335.56961	0.04399
2333.51002	0.04358
2331.45044	0.04312
2329.39085	0.04313
2327.33127	0.04371
2325.27168	0.04419
2323.21210	0.04382
2321.15251	0.04286
2319.09293	0.04194
2317.03334	0.04136
2314.97376	0.04109
2312.91417	0.04085
2310.85458	0.04057
2308.79500	0.04033
2306.73541	0.04012
2304.67583	0.03980
2302.61624	0.03933
2300.55666	0.03914
2298.49707	0.03934
2296.43749	0.03930
2294.37790	0.03887
2292.31832	0.03874
2290.25873	0.03911
2288.19915	0.03926
2286.13956	0.03868
2284.07998	0.03809
2282.02039	0.03811
2279.96081	0.03806
2277.90122	0.03764
2275.84164	0.03750
2273.78205	0.03754
2271.72247	0.03722
2269.66288	0.03684
2267.60330	0.03657
2265.54371	0.03616
2263.48413	0.03579
2261.42454	0.03553
2259.36495	0.03522
2257.30537	0.03484
2255.24578	0.03441
2253.18620	0.03386
2251.12661	0.03340
2249.06703	0.03401
2247.00744	0.03546
2244.94786	0.03611
2242.88827	0.03494
2240.82869	0.03305
2238.76910	0.03235
2236.70952	0.03297
2234.64993	0.03357
2232.59035	0.03348
2230.53076	0.03259
2228.47118	0.03193
2226.41159	0.03249
2224.35201	0.03350
2222.29242	0.03385
2220.23284	0.03359
2218.17325	0.03375
2216.11367	0.03415
2214.05408	0.03352
2211.99450	0.03219
2209.93491	0.03184
2207.87533	0.03202
2205.81574	0.03135
2203.75615	0.03102
2201.69657	0.03162
2199.63698	0.03153
2197.57740	0.03083
2195.51781	0.03091
2193.45823	0.03117
2191.39864	0.03020
2189.33906	0.02908
2187.27947	0.02951
2185.21989	0.02987
2183.16030	0.02885
2181.10072	0.02840
2179.04113	0.02931
2176.98155	0.03029
2174.92196	0.03082
2172.86238	0.03080
2170.80279	0.03021
2168.74321	0.02933
2166.68362	0.02775
2164.62404	0.02612
2162.56445	0.02583
2160.50487	0.02589
2158.44528	0.02489
2156.38570	0.02395
2154.32611	0.02412
2152.26652	0.02523
2150.20694	0.02691
2148.14735	0.02811
2146.08777	0.02827
2144.02818	0.02796
2141.96860	0.02780
2139.90901	0.02814
2137.84943	0.02903
2135.78984	0.02932
2133.73026	0.02857
2131.67067	0.02811
2129.61109	0.02847
2127.55150	0.02912
2125.49192	0.02935
2123.43233	0.02923
2121.37275	0.02966
2119.31316	0.03018
2117.25358	0.03010
2115.19399	0.03038
2113.13441	0.03106
2111.07482	0.03095
2109.01524	0.03021
2106.95565	0.02986
2104.89607	0.03008
2102.83648	0.03014
2100.77690	0.02959
2098.71731	0.02900
2096.65772	0.02894
2094.59814	0.02906
2092.53855	0.02907
2090.47897	0.02922
2088.41938	0.02946
2086.35980	0.02952
2084.30021	0.02940
2082.24063	0.02941
2080.18104	0.02970
2078.12146	0.02992
2076.06187	0.02999
2074.00229	0.03004
2071.94270	0.02953
2069.88312	0.02879
2067.82353	0.02896
2065.76395	0.02936
2063.70436	0.02863
2061.64478	0.02772
2059.58519	0.02774
2057.52561	0.02787
2055.46602	0.02769
2053.40644	0.02806
2051.34685	0.02901
2049.28727	0.02927
2047.22768	0.02840
2045.16810	0.02699
2043.10851	0.02564
2041.04892	0.02542
2038.98934	0.02585
2036.92975	0.02539
2034.87017	0.02491
2032.81058	0.02563
2030.75100	0.02602
2028.69141	0.02507
2026.63183	0.02403
2024.57224	0.02337
2022.51266	0.02273
2020.45307	0.02273
2018.39349	0.02353
2016.33390	0.02417
2014.27432	0.02444
2012.21473	0.02430
2010.15515	0.02368
2008.09556	0.02304
2006.03598	0.02280
2003.97639	0.02328
2001.91681	0.02409
1999.85722	0.02450
1997.79764	0.02429
1995.73805	0.02421
1993.67847	0.02494
1991.61888	0.02492
1989.55929	0.02348
1987.49971	0.02305
1985.44012	0.02407
1983.38054	0.02434
1981.32095	0.02357
1979.26137	0.02302
1977.20178	0.02268
1975.14220	0.02187
1973.08261	0.02103
1971.02303	0.02089
1968.96344	0.02119
1966.90386	0.02139
1964.84427	0.02143
1962.78469	0.02130
1960.72510	0.02107
1958.66552	0.02133
1956.60593	0.02205
1954.54635	0.02257
1952.48676	0.02279
1950.42718	0.02297
1948.36759	0.02316
1946.30801	0.02320
1944.24842	0.02308
1942.18884	0.02312
1940.12925	0.02351
1938.06967	0.02395
1936.01008	0.02414
1933.95049	0.02398
1931.89091	0.02371
1929.83132	0.02364
1927.77174	0.02363
1925.71215	0.02373
1923.65257	0.02418
1921.59298	0.02473
1919.53340	0.02489
1917.47381	0.02452
1915.41423	0.02394
1913.35464	0.02351
1911.29506	0.02336
1909.23547	0.02331
1907.17589	0.02308
1905.11630	0.02283
1903.05672	0.02281
1900.99713	0.02288
1898.93755	0.02292
1896.87796	0.02306
1894.81838	0.02302
1892.75879	0.02250
1890.69921	0.02224
1888.63962	0.02271
1886.58004	0.02306
1884.52045	0.02287
1882.46086	0.02262
1880.40128	0.02258
1878.34169	0.02256
1876.28211	0.02259
1874.22252	0.02278
1872.16294	0.02286
1870.10335	0.02257
1868.04377	0.02213
1865.98418	0.02174
1863.92460	0.02144
1861.86501	0.02144
1859.80543	0.02163
1857.74584	0.02165
1855.68626	0.02150
1853.62667	0.02136
1851.56709	0.02132
1849.50750	0.02140
1847.44792	0.02143
1845.38833	0.02126
1843.32875	0.02091
1841.26916	0.02064
1839.20958	0.02072
1837.14999	0.02096
1835.09041	0.02103
1833.03082	0.02102
1830.97124	0.02098
1828.91165	0.02073
1826.85206	0.02045
1824.79248	0.02028
1822.73289	0.02019
1820.67331	0.02012
1818.61372	0.01996
1816.55414	0.01969
1814.49455	0.01948
1812.43497	0.01942
1810.37538	0.01937
1808.31580	0.01923
1806.25621	0.01909
1804.19663	0.01902
1802.13704	0.01898
1800.07746	0.01904
1798.01787	0.01916
1795.95829	0.01918
1793.89870	0.01914
1791.83912	0.01907
1789.77953	0.01886
1787.71995	0.01852
1785.66036	0.01818
1783.60078	0.01793
1781.54119	0.01780
1779.48161	0.01773
1777.42202	0.01755
1775.36243	0.01735
1773.30285	0.01724
1771.24326	0.01716
1769.18368	0.01702
1767.12409	0.01682
1765.06451	0.01672
1763.00492	0.01677
1760.94534	0.01673
1758.88575	0.01646
1756.82617	0.01614
1754.76658	0.01594
1752.70700	0.01579
1750.64741	0.01568
1748.58783	0.01559
1746.52824	0.01551
1744.46866	0.01541
1742.40907	0.01526
1740.34949	0.01505
1738.28990	0.01483
1736.23032	0.01469
1734.17073	0.01462
1732.11115	0.01459
1730.05156	0.01461
1727.99198	0.01468
1725.93239	0.01471
1723.87281	0.01469
1721.81322	0.01481
1719.75363	0.01519
1717.69405	0.01589
1715.63446	0.01696
1713.57488	0.01837
1711.51529	0.02022
1709.45571	0.02290
1707.39612	0.02706
1705.33654	0.03282
1703.27695	0.03914
1701.21737	0.04522
1699.15778	0.04997
1697.09820	0.05198
1695.03861	0.05206
1692.97903	0.05173
1690.91944	0.05165
1688.85986	0.05199
1686.80027	0.05286
1684.74069	0.05451
1682.68110	0.05670
1680.62152	0.05867
1678.56193	0.06051
1676.50235	0.06271
1674.44276	0.06534
1672.38318	0.06796
1670.32359	0.07069
1668.26401	0.07379
1666.20442	0.07682
1664.14483	0.07975
1662.08525	0.08297
1660.02566	0.08623
1657.96608	0.08918
1655.90649	0.09211
1653.84691	0.09591
1651.78732	0.10012
1649.72774	0.10315
1647.66815	0.10590
1645.60857	0.10935
1643.54898	0.11279
1641.48940	0.11596
1639.42981	0.11925
1637.37023	0.12326
1635.31064	0.12826
1633.25106	0.13301
1631.19147	0.13690
1629.13189	0.14068
1627.07230	0.14443
1625.01272	0.14771
1622.95313	0.15032
1620.89355	0.15187
1618.83396	0.15213
1616.77438	0.15122
1614.71479	0.14919
1612.65520	0.14619
1610.59562	0.14227
1608.53603	0.13748
1606.47645	0.13206
1604.41686	0.12623
1602.35728	0.12025
1600.29769	0.11454
1598.23811	0.10935
1596.17852	0.10460
1594.11894	0.10014
1592.05935	0.09589
1589.99977	0.09188
1587.94018	0.08827
1585.88060	0.08513
1583.82101	0.08248
1581.76143	0.08033
1579.70184	0.07871
1577.64226	0.07766
1575.58267	0.07720
1573.52309	0.07721
1571.46350	0.07763
1569.40392	0.07868
1567.34433	0.08024
1565.28475	0.08194
1563.22516	0.08360
1561.16558	0.08551
1559.10599	0.08830
1557.04640	0.09139
1554.98682	0.09378
1552.92723	0.09591
1550.86765	0.09814
1548.80806	0.10041
1546.74848	0.10263
1544.68889	0.10487
1542.62931	0.10742
1540.56972	0.11064
1538.51014	0.11408
1536.45055	0.11677
1534.39097	0.11924
1532.33138	0.12204
1530.27180	0.12479
1528.21221	0.12739
1526.15263	0.12995
1524.09304	0.13244
1522.03346	0.13532
1519.97387	0.13884
1517.91429	0.14255
1515.85470	0.14602
1513.79512	0.14858
1511.73553	0.14986
1509.67595	0.15005
1507.61636	0.14952
1505.55677	0.14851
1503.49719	0.14711
1501.43760	0.14534
1499.37802	0.14303
1497.31843	0.14012
1495.25885	0.13684
1493.19926	0.13351
1491.13968	0.13003
1489.08009	0.12619
1487.02051	0.12217
1484.96092	0.11820
1482.90134	0.11438
1480.84175	0.11073
1478.78217	0.10731
1476.72258	0.10423
1474.66300	0.10154
1472.60341	0.09913
1470.54383	0.09699
1468.48424	0.09520
1466.42466	0.09365
1464.36507	0.09233
1462.30549	0.09140
1460.24590	0.09100
1458.18632	0.09154
1456.12673	0.09329
1454.06715	0.09564
1452.00756	0.09812
1449.94797	0.10065
1447.88839	0.10298
1445.82880	0.10472
1443.76922	0.10568
1441.70963	0.10605
1439.65005	0.10592
1437.59046	0.10507
1435.53088	0.10333
1433.47129	0.10087
1431.41171	0.09804
1429.35212	0.09523
1427.29254	0.09281
1425.23295	0.09087
1423.17337	0.08939
1421.11378	0.08830
1419.05420	0.08753
1416.99461	0.08708
1414.93503	0.08688
1412.87544	0.08684
1410.81586	0.08693
1408.75627	0.08708
1406.69669	0.08715
1404.63710	0.08704
1402.57752	0.08668
1400.51793	0.08609
1398.45834	0.08545
1396.39876	0.08484
1394.33917	0.08427
1392.27959	0.08372
1390.22000	0.08323
1388.16042	0.08281
1386.10083	0.08239
1384.04125	0.08196
1381.98166	0.08154
1379.92208	0.08111
1377.86249	0.08064
1375.80291	0.08024
1373.74332	0.08008
1371.68374	0.08016
1369.62415	0.08029
1367.56457	0.08020
1365.50498	0.07960
1363.44540	0.07845
1361.38581	0.07698
1359.32623	0.07550
1357.26664	0.07421
1355.20706	0.07316
1353.14747	0.07237
1351.08789	0.07177
1349.02830	0.07124
1346.96872	0.07084
1344.90913	0.07061
1342.84954	0.07049
1340.78996	0.07040
1338.73037	0.07037
1336.67079	0.07038
1334.61120	0.07028
1332.55162	0.06999
1330.49203	0.06960
1328.43245	0.06918
1326.37286	0.06867
1324.31328	0.06808
1322.25369	0.06747
1320.19411	0.06680
1318.13452	0.06611
1316.07494	0.06559
1314.01535	0.06529
1311.95577	0.06512
1309.89618	0.06497
1307.83660	0.06470
1305.77701	0.06430
1303.71743	0.06391
1301.65784	0.06359
1299.59826	0.06330
1297.53867	0.06301
1295.47909	0.06265
1293.41950	0.06220
1291.35991	0.06179
1289.30033	0.06155
1287.24074	0.06151
1285.18116	0.06160
1283.12157	0.06171
1281.06199	0.06195
1279.00240	0.06244
1276.94282	0.06327
1274.88323	0.06439
1272.82365	0.06573
1270.76406	0.06725
1268.70448	0.06891
1266.64489	0.07049
1264.58531	0.07180
1262.52572	0.07275
1260.46614	0.07331
1258.40655	0.07355
1256.34697	0.07363
1254.28738	0.07371
1252.22780	0.07388
1250.16821	0.07414
1248.10863	0.07448
1246.04904	0.07493
1243.98946	0.07554
1241.92987	0.07649
1239.87029	0.07777
1237.81070	0.07920
1235.75111	0.08071
1233.69153	0.08232
1231.63194	0.08384
1229.57236	0.08502
1227.51277	0.08566
1225.45319	0.08578
1223.39360	0.08555
1221.33402	0.08507
1219.27443	0.08439
1217.21485	0.08346
1215.15526	0.08224
1213.09568	0.08078
1211.03609	0.07925
1208.97651	0.07767
1206.91692	0.07583
1204.85734	0.07371
1202.79775	0.07165
1200.73817	0.06978
1198.67858	0.06799
1196.61900	0.06633
1194.55941	0.06486
1192.49983	0.06353
1190.44024	0.06232
1188.38066	0.06132
1186.32107	0.06048
1184.26149	0.05967
1182.20190	0.05907
1180.14231	0.05891
1178.08273	0.05921
1176.02314	0.05989
1173.96356	0.06082
1171.90397	0.06175
1169.84439	0.06244
1167.78480	0.06283
1165.72522	0.06300
1163.66563	0.06314
1161.60605	0.06321
1159.54646	0.06297
1157.48688	0.06238
1155.42729	0.06164
1153.36771	0.06082
1151.30812	0.05980
1149.24854	0.05865
1147.18895	0.05751
1145.12937	0.05647
1143.06978	0.05546
1141.01020	0.05445
1138.95061	0.05347
1136.89103	0.05259
1134.83144	0.05191
1132.77186	0.05142
1130.71227	0.05091
1128.65268	0.05031
1126.59310	0.04976
1124.53351	0.04929
1122.47393	0.04887
1120.41434	0.04855
1118.35476	0.04829
1116.29517	0.04795
1114.23559	0.04765
1112.17600	0.04742
1110.11642	0.04717
1108.05683	0.04697
1105.99725	0.04691
1103.93766	0.04689
1101.87808	0.04674
1099.81849	0.04641
1097.75891	0.04599
1095.69932	0.04568
1093.63974	0.04548
1091.58015	0.04540
1089.52057	0.04562
1087.46098	0.04618
1085.40140	0.04692
1083.34181	0.04772
1081.28223	0.04860
1079.22264	0.04950
1077.16306	0.05038
1075.10347	0.05144
1073.04388	0.05260
1070.98430	0.05336
1068.92471	0.05368
1066.86513	0.05398
1064.80554	0.05429
1062.74596	0.05440
1060.68637	0.05429
1058.62679	0.05404
1056.56720	0.05369
1054.50762	0.05322
1052.44803	0.05266
1050.38845	0.05214
1048.32886	0.05176
1046.26928	0.05153
1044.20969	0.05132
1042.15011	0.05105
1040.09052	0.05076
1038.03094	0.05031
1035.97135	0.04965
1033.91177	0.04895
1031.85218	0.04822
1029.79260	0.04746
1027.73301	0.04676
1025.67343	0.04609
1023.61384	0.04544
1021.55425	0.04499
1019.49467	0.04479
1017.43508	0.04478
1015.37550	0.04486
1013.31591	0.04487
1011.25633	0.04477
1009.19674	0.04477
1007.13716	0.04495
1005.07757	0.04528
1003.01799	0.04575
1000.95840	0.04622
998.89882	0.04650
996.83923	0.04661
994.77965	0.04649
992.72006	0.04607
990.66048	0.04538
988.60089	0.04449
986.54131	0.04363
984.48172	0.04316
982.42214	0.04322
980.36255	0.04354
978.30297	0.04396
976.24338	0.04441
974.18380	0.04465
972.12421	0.04441
970.06463	0.04371
968.00504	0.04283
965.94545	0.04205
963.88587	0.04134
961.82628	0.04061
959.76670	0.03996
957.70711	0.03946
955.64753	0.03903
953.58794	0.03862
951.52836	0.03821
949.46877	0.03773
947.40919	0.03719
945.34960	0.03673
943.29002	0.03655
941.23043	0.03656
939.17085	0.03641
937.11126	0.03606
935.05168	0.03581
932.99209	0.03574
930.93251	0.03564
928.87292	0.03548
926.81334	0.03537
924.75375	0.03518
922.69417	0.03481
920.63458	0.03440
918.57500	0.03393
916.51541	0.03346
914.45582	0.03309
912.39624	0.03278
910.33665	0.03244
908.27707	0.03216
906.21748	0.03194
904.15790	0.03174
902.09831	0.03156
900.03873	0.03142
897.97914	0.03125
895.91956	0.03106
893.85997	0.03087
891.80039	0.03071
889.74080	0.03057
887.68122	0.03042
885.62163	0.03023
883.56205	0.02999
881.50246	0.02972
879.44288	0.02953
877.38329	0.02938
875.32371	0.02913
873.26412	0.02889
871.20454	0.02873
869.14495	0.02856
867.08537	0.02833
865.02578	0.02818
862.96620	0.02819
860.90661	0.02833
858.84702	0.02847
856.78744	0.02861
854.72785	0.02893
852.66827	0.02933
850.60868	0.02945
848.54910	0.02919
846.48951	0.02884
844.42993	0.02863
842.37034	0.02853
840.31076	0.02850
838.25117	0.02855
836.19159	0.02866
834.13200	0.02880
832.07242	0.02896
830.01283	0.02915
827.95325	0.02929
825.89366	0.02922
823.83408	0.02901
821.77449	0.02879
819.71491	0.02859
817.65532	0.02846
815.59574	0.02827
813.53615	0.02806
811.47657	0.02794
809.41698	0.02783
807.35740	0.02768
805.29781	0.02760
803.23822	0.02763
801.17864	0.02760
799.11905	0.02746
797.05947	0.02732
794.99988	0.02719
792.94030	0.02705
790.88071	0.02711
788.82113	0.02740
786.76154	0.02763
784.70196	0.02779
782.64237	0.02794
780.58279	0.02805
778.52320	0.02817
776.46362	0.02840
774.40403	0.02875
772.34445	0.02918
770.28486	0.02959
768.22528	0.02983
766.16569	0.02986
764.10611	0.02990
762.04652	0.03008
759.98694	0.03024
757.92735	0.03027
755.86777	0.03030
753.80818	0.03060
751.74859	0.03110
749.68901	0.03151
747.62942	0.03186
745.56984	0.03238
743.51025	0.03296
741.45067	0.03343
739.39108	0.03393
737.33150	0.03456
735.27191	0.03521
733.21233	0.03587
731.15274	0.03663
729.09316	0.03735
727.03357	0.03802
724.97399	0.03874
722.91440	0.03944
720.85482	0.04006
718.79523	0.04057
716.73565	0.04101
714.67606	0.04142
712.61648	0.04183
710.55689	0.04228
708.49731	0.04279
706.43772	0.04330
704.37814	0.04382
702.31855	0.04438
700.25897	0.04493
698.19938	0.04536
696.13979	0.04555
694.08021	0.04568
692.02062	0.04598
689.96104	0.04629
687.90145	0.04643
685.84187	0.04649
683.78228	0.04657
681.72270	0.04656
679.66311	0.04639
677.60353	0.04617
675.54394	0.04603
673.48436	0.04605
671.42477	0.04624
669.36519	0.04657
667.30560	0.04667
665.24602	0.04638
663.18643	0.04620
661.12685	0.04632
659.06726	0.04649
657.00768	0.04663
654.94809	0.04682
652.88851	0.04708
650.82892	0.04737
648.76934	0.04767
646.70975	0.04798
644.65016	0.04825
642.59058	0.04840
640.53099	0.04839
638.47141	0.04834
636.41182	0.04840
634.35224	0.04858
632.29265	0.04880
630.23307	0.04892
628.17348	0.04900
626.11390	0.04910
624.05431	0.04909
621.99473	0.04898
619.93514	0.04885
617.87556	0.04871
615.81597	0.04859
613.75639	0.04854
611.69680	0.04860
609.63722	0.04868
607.57763	0.04855
605.51805	0.04813
603.45846	0.04759
601.39888	0.04696
599.33929	0.04625
597.27971	0.04560
595.22012	0.04512
593.16054	0.04473
591.10095	0.04436
589.04136	0.04401
586.98178	0.04366
584.92219	0.04325
582.86261	0.04280
580.80302	0.04246
578.74344	0.04239
576.68385	0.04252
574.62427	0.04254
572.56468	0.04235
570.50510	0.04213
568.44551	0.04209
566.38593	0.04236
564.32634	0.04303
562.26676	0.04392
560.20717	0.04495
558.14759	0.04613
556.08800	0.04718
554.02842	0.04790
551.96883	0.04850
549.90925	0.04893
547.84966	0.04894
545.79008	0.04871
543.73049	0.04841
541.67091	0.04795
539.61132	0.04753
537.55173	0.04726
535.49215	0.04683
533.43256	0.04607
531.37298	0.04527
529.31339	0.04474
527.25381	0.04429
525.19422	0.04369
523.13464	0.04334
521.07505	0.04333
519.01547	0.04317
516.95588	0.04266
514.89630	0.04200
512.83671	0.04138
510.77713	0.04099
508.71754	0.04087
506.65796	0.04059
504.59837	0.04000
502.53879	0.03954
500.47920	0.03941
498.41962	0.03938
496.36003	0.03934
494.30045	0.03919
492.24086	0.03894
490.18128	0.03872
488.12169	0.03852
486.06211	0.03827
484.00252	0.03798
481.94293	0.03766
479.88335	0.03715
477.82376	0.03648
475.76418	0.03612
473.70459	0.03605
471.64501	0.03568
469.58542	0.03509
467.52584	0.03476
465.46625	0.03468
463.40667	0.03469
461.34708	0.03458
459.28750	0.03401
457.22791	0.03320
455.16833	0.03269
453.10874	0.03249
451.04916	0.03238
448.98957	0.03219
446.92999	0.03180
444.87040	0.03139
442.81082	0.03142
440.75123	0.03188
438.69165	0.03205
436.63206	0.03172
434.57248	0.03153
432.51289	0.03182
430.45330	0.03237
428.39372	0.03283
426.33413	0.03295
424.27455	0.03283
422.21496	0.03253
420.15538	0.03199
418.09579	0.03146
416.03621	0.03110
413.97662	0.03067
411.91704	0.03010
409.85745	0.02967
407.79787	0.02952
405.73828	0.02947
403.67870	0.02923
401.61911	0.02847
399.55953	0.02723
