3995.59527	0.04787
3991.47610	0.04790
3987.35693	0.04815
3983.23776	0.04849
3979.11859	0.04849
3974.99942	0.04844
3970.88025	0.04837
3966.76108	0.04802
3962.64191	0.04757
3958.52274	0.04721
3954.40357	0.04719
3950.28440	0.04747
3946.16523	0.04759
3942.04606	0.04776
3937.92689	0.04765
3933.80772	0.04763
3929.68855	0.04684
3925.56937	0.04602
3921.45020	0.04573
3917.33103	0.04609
3913.21186	0.04605
3909.09269	0.04607
3904.97352	0.04658
3900.85435	0.04656
3896.73518	0.04583
3892.61601	0.04625
3888.49684	0.04595
3884.37767	0.04562
3880.25850	0.04545
3876.13933	0.04534
3872.02016	0.04574
3867.90099	0.04540
3863.78182	0.04533
3859.66265	0.04428
3855.54348	0.04569
3851.42431	0.04501
3847.30514	0.04349
3843.18597	0.04445
3839.06680	0.04498
3834.94763	0.04442
3830.82846	0.04431
3826.70929	0.04424
3822.59012	0.04432
3818.47094	0.04389
3814.35177	0.04349
3810.23260	0.04337
3806.11343	0.04404
3801.99426	0.04410
3797.87509	0.04332
3793.75592	0.04282
3789.63675	0.04283
3785.51758	0.04316
3781.39841	0.04359
3777.27924	0.04335
3773.16007	0.04284
3769.04090	0.04286
3764.92173	0.04209
3760.80256	0.04196
3756.68339	0.04174
3752.56422	0.04276
3748.44505	0.04229
3744.32588	0.04229
3740.20671	0.04090
3736.08754	0.04210
3731.96837	0.04144
3727.84920	0.04066
3723.73003	0.04120
3719.61086	0.04094
3715.49169	0.04059
3711.37251	0.04124
3707.25334	0.04035
3703.13417	0.04079
3699.01500	0.04075
3694.89583	0.04036
3690.77666	0.04133
3686.65749	0.04067
3682.53832	0.03927
3678.41915	0.03994
3674.29998	0.04057
3670.18081	0.04083
3666.06164	0.04033
3661.94247	0.04014
3657.82330	0.04041
3653.70413	0.04013
3649.58496	0.04110
3645.46579	0.04055
3641.34662	0.04099
3637.22745	0.04089
3633.10828	0.04003
3628.98911	0.04074
3624.86994	0.03989
3620.75077	0.04089
3616.63160	0.04140
3612.51243	0.04202
3608.39326	0.04260
3604.27408	0.04215
3600.15491	0.04260
3596.03574	0.04346
3591.91657	0.04383
3587.79740	0.04429
3583.67823	0.04404
3579.55906	0.04454
3575.43989	0.04489
3571.32072	0.04491
3567.20155	0.04538
3563.08238	0.04521
3558.96321	0.04548
3554.84404	0.04583
3550.72487	0.04651
3546.60570	0.04773
3542.48653	0.04856
3538.36736	0.04905
3534.24819	0.04912
3530.12902	0.04932
3526.00985	0.04985
3521.89068	0.04986
3517.77151	0.04978
3513.65234	0.05010
3509.53317	0.05042
3505.41400	0.05053
3501.29483	0.05083
3497.17565	0.05143
3493.05648	0.05201
3488.93731	0.05244
3484.81814	0.05291
3480.69897	0.05326
3476.57980	0.05326
3472.46063	0.05320
3468.34146	0.05339
3464.22229	0.05366
3460.10312	0.05362
3455.98395	0.05362
3451.86478	0.05387
3447.74561	0.05397
3443.62644	0.05366
3439.50727	0.05351
3435.38810	0.05391
3431.26893	0.05474
3427.14976	0.05563
3423.03059	0.05609
3418.91142	0.05620
3414.79225	0.05649
3410.67308	0.05715
3406.55391	0.05791
3402.43474	0.05851
3398.31557	0.05873
3394.19640	0.05883
3390.07723	0.05927
3385.95805	0.05979
3381.83888	0.06026
3377.71971	0.06100
3373.60054	0.06172
3369.48137	0.06233
3365.36220	0.06320
3361.24303	0.06425
3357.12386	0.06532
3353.00469	0.06647
3348.88552	0.06762
3344.76635	0.06888
3340.64718	0.07071
3336.52801	0.07310
3332.40884	0.07550
3328.28967	0.07815
3324.17050	0.08142
3320.05133	0.08509
3315.93216	0.08908
3311.81299	0.09340
3307.69382	0.09803
3303.57465	0.10319
3299.45548	0.10859
3295.33631	0.11358
3291.21714	0.11801
3287.09797	0.12192
3282.97880	0.12502
3278.85962	0.12700
3274.74045	0.12788
3270.62128	0.12763
3266.50211	0.12624
3262.38294	0.12402
3258.26377	0.12127
3254.14460	0.11810
3250.02543	0.11460
3245.90626	0.11131
3241.78709	0.10865
3237.66792	0.10640
3233.54875	0.10403
3229.42958	0.10173
3225.31041	0.09969
3221.19124	0.09783
3217.07207	0.09623
3212.95290	0.09471
3208.83373	0.09289
3204.71456	0.09099
3200.59539	0.08931
3196.47622	0.08786
3192.35705	0.08657
3188.23788	0.08519
3184.11871	0.08356
3179.99954	0.08201
3175.88037	0.08082
3171.76119	0.07977
3167.64202	0.07852
3163.52285	0.07726
3159.40368	0.07618
3155.28451	0.07499
3151.16534	0.07363
3147.04617	0.07259
3142.92700	0.07202
3138.80783	0.07124
3134.68866	0.07010
3130.56949	0.06939
3126.45032	0.06937
3122.33115	0.06937
3118.21198	0.06911
3114.09281	0.06907
3109.97364	0.06920
3105.85447	0.06902
3101.73530	0.06899
3097.61613	0.06952
3093.49696	0.07023
3089.37779	0.07075
3085.25862	0.07088
3081.13945	0.07083
3077.02028	0.07098
3072.90111	0.07121
3068.78194	0.07121
3064.66276	0.07088
3060.54359	0.07032
3056.42442	0.06976
3052.30525	0.06911
3048.18608	0.06826
3044.06691	0.06735
3039.94774	0.06643
3035.82857	0.06534
3031.70940	0.06432
3027.59023	0.06365
3023.47106	0.06321
3019.35189	0.06272
3015.23272	0.06217
3011.11355	0.06167
3006.99438	0.06122
3002.87521	0.06101
2998.75604	0.06120
2994.63687	0.06166
2990.51770	0.06222
2986.39853	0.06290
2982.27936	0.06354
2978.16019	0.06395
2974.04102	0.06417
2969.92185	0.06430
2965.80268	0.06439
2961.68351	0.06421
2957.56433	0.06375
2953.44516	0.06352
2949.32599	0.06370
2945.20682	0.06413
2941.08765	0.06499
2936.96848	0.06633
2932.84931	0.06765
2928.73014	0.06859
2924.61097	0.06930
2920.49180	0.06962
2916.37263	0.06904
2912.25346	0.06752
2908.13429	0.06575
2904.01512	0.06444
2899.89595	0.06354
2895.77678	0.06281
2891.65761	0.06211
2887.53844	0.06142
2883.41927	0.06105
2879.30010	0.06119
2875.18093	0.06143
2871.06176	0.06122
2866.94259	0.06069
2862.82342	0.06042
2858.70425	0.06053
2854.58508	0.06080
2850.46590	0.06071
2846.34673	0.05981
2842.22756	0.05849
2838.10839	0.05740
2833.98922	0.05672
2829.87005	0.05619
2825.75088	0.05565
2821.63171	0.05526
2817.51254	0.05508
2813.39337	0.05501
2809.27420	0.05490
2805.15503	0.05456
2801.03586	0.05418
2796.91669	0.05403
2792.79752	0.05398
2788.67835	0.05389
2784.55918	0.05372
2780.44001	0.05337
2776.32084	0.05288
2772.20167	0.05256
2768.08250	0.05246
2763.96333	0.05227
2759.84416	0.05192
2755.72499	0.05163
2751.60582	0.05147
2747.48665	0.05132
2743.36747	0.05125
2739.24830	0.05123
2735.12913	0.05093
2731.00996	0.05047
2726.89079	0.05026
2722.77162	0.05026
2718.65245	0.05009
2714.53328	0.04973
2710.41411	0.04936
2706.29494	0.04906
2702.17577	0.04885
2698.05660	0.04864
2693.93743	0.04844
2689.81826	0.04831
2685.69909	0.04821
2681.57992	0.04814
2677.46075	0.04802
2673.34158	0.04782
2669.22241	0.04770
2665.10324	0.04771
2660.98407	0.04774
2656.86490	0.04761
2652.74573	0.04734
2648.62656	0.04703
2644.50739	0.04675
2640.38822	0.04648
2636.26904	0.04630
2632.14987	0.04631
2628.03070	0.04630
2623.91153	0.04608
2619.79236	0.04562
2615.67319	0.04511
2611.55402	0.04486
2607.43485	0.04485
2603.31568	0.04475
2599.19651	0.04453
2595.07734	0.04438
2590.95817	0.04426
2586.83900	0.04391
2582.71983	0.04345
2578.60066	0.04333
2574.48149	0.04348
2570.36232	0.04332
2566.24315	0.04281
2562.12398	0.04256
2558.00481	0.04261
2553.88564	0.04235
2549.76647	0.04196
2545.64730	0.04188
2541.52813	0.04179
2537.40896	0.04139
2533.28979	0.04103
2529.17062	0.04098
2525.05144	0.04103
2520.93227	0.04109
2516.81310	0.04103
2512.69393	0.04090
2508.57476	0.04078
2504.45559	0.04049
2500.33642	0.04029
2496.21725	0.04041
2492.09808	0.04054
2487.97891	0.04049
2483.85974	0.04040
2479.74057	0.04012
2475.62140	0.03970
2471.50223	0.03945
2467.38306	0.03946
2463.26389	0.03956
2459.14472	0.03943
2455.02555	0.03909
2450.90638	0.03891
2446.78721	0.03898
2442.66804	0.03914
2438.54887	0.03910
2434.42970	0.03860
2430.31053	0.03815
2426.19136	0.03798
2422.07219	0.03785
2417.95301	0.03784
2413.83384	0.03793
2409.71467	0.03778
2405.59550	0.03738
2401.47633	0.03718
2397.35716	0.03722
2393.23799	0.03756
2389.11882	0.03747
2384.99965	0.03703
2380.88048	0.03635
2376.76131	0.03557
2372.64214	0.03502
2368.52297	0.03417
2364.40380	0.03310
2360.28463	0.03319
2356.16546	0.03530
2352.04629	0.03539
2347.92712	0.03454
2343.80795	0.03628
2339.68878	0.03554
2335.56961	0.03507
2331.45044	0.03522
2327.33127	0.03563
2323.21210	0.03593
2319.09293	0.03616
2314.97376	0.03598
2310.85458	0.03564
2306.73541	0.03516
2302.61624	0.03476
2298.49707	0.03472
2294.37790	0.03502
2290.25873	0.03539
2286.13956	0.03551
2282.02039	0.03493
2277.90122	0.03395
2273.78205	0.03346
2269.66288	0.03359
2265.54371	0.03379
2261.42454	0.03369
2257.30537	0.03303
2253.18620	0.03214
2249.06703	0.03151
2244.94786	0.03135
2240.82869	0.03150
2236.70952	0.03185
2232.59035	0.03170
2228.47118	0.03112
2224.35201	0.03096
2220.23284	0.03128
2216.11367	0.03119
2211.99450	0.03034
2207.87533	0.02953
2203.75615	0.02925
2199.63698	0.02925
2195.51781	0.02922
2191.39864	0.02887
2187.27947	0.02845
2183.16030	0.02863
2179.04113	0.02900
2174.92196	0.02879
2170.80279	0.02836
2166.68362	0.02784
2162.56445	0.02665
2158.44528	0.02508
2154.32611	0.02430
2150.20694	0.02446
2146.08777	0.02500
2141.96860	0.02574
2137.84943	0.02660
2133.73026	0.02723
2129.61109	0.02756
2125.49192	0.02801
2121.37275	0.02874
2117.25358	0.02920
2113.13441	0.02905
2109.01524	0.02884
2104.89607	0.02897
2100.77690	0.02887
2096.65772	0.02842
2092.53855	0.02826
2088.41938	0.02806
2084.30021	0.02768
2080.18104	0.02768
2076.06187	0.02775
2071.94270	0.02743
2067.82353	0.02717
2063.70436	0.02716
2059.58519	0.02711
2055.46602	0.02686
2051.34685	0.02620
2047.22768	0.02508
2043.10851	0.02390
2038.98934	0.02323
2034.87017	0.02344
2030.75100	0.02409
2026.63183	0.02427
2022.51266	0.02370
2018.39349	0.02326
2014.27432	0.02327
2010.15515	0.02288
2006.03598	0.02206
2001.91681	0.02182
1997.79764	0.02212
1993.67847	0.02256
1989.55929	0.02322
1985.44012	0.02385
1981.32095	0.02346
1977.20178	0.02212
1973.08261	0.02153
1968.96344	0.02205
1964.84427	0.02242
1960.72510	0.02224
1956.60593	0.02198
1952.48676	0.02184
1948.36759	0.02170
1944.24842	0.02150
1940.12925	0.02161
1936.01008	0.02240
1931.89091	0.02279
1927.77174	0.02222
1923.65257	0.02180
1919.53340	0.02192
1915.41423	0.02193
1911.29506	0.02185
1907.17589	0.02176
1903.05672	0.02163
1898.93755	0.02143
1894.81838	0.02109
1890.69921	0.02100
1886.58004	0.02111
1882.46086	0.02118
1878.34169	0.02103
1874.22252	0.02079
1870.10335	0.02083
1865.98418	0.02055
1861.86501	0.02036
1857.74584	0.02037
1853.62667	0.02019
1849.50750	0.01981
1845.38833	0.01966
1841.26916	0.01918
1837.14999	0.01896
1833.03082	0.01904
1828.91165	0.01915
1824.79248	0.01894
1820.67331	0.01860
1816.55414	0.01831
1812.43497	0.01815
1808.31580	0.01802
1804.19663	0.01783
1800.07746	0.01755
1795.95829	0.01707
1791.83912	0.01704
1787.71995	0.01660
1783.60078	0.01648
1779.48161	0.01601
1775.36243	0.01573
1771.24326	0.01562
1767.12409	0.01495
1763.00492	0.01487
1758.88575	0.01468
1754.76658	0.01429
1750.64741	0.01421
1746.52824	0.01357
1742.40907	0.01318
1738.28990	0.01284
1734.17073	0.01315
1730.05156	0.01254
1725.93239	0.01234
1721.81322	0.01259
1717.69405	0.01401
1713.57488	0.01546
1709.45571	0.01911
1705.33654	0.02557
1701.21737	0.03377
1697.09820	0.03926
1692.97903	0.04020
1688.85986	0.04081
1684.74069	0.04371
1680.62152	0.04622
1676.50235	0.04990
1672.38318	0.05415
1668.26401	0.05892
1664.14483	0.06407
1660.02566	0.06888
1655.90649	0.07451
1651.78732	0.08108
1647.66815	0.08680
1643.54898	0.09242
1639.42981	0.09831
1635.31064	0.10626
1631.19147	0.11314
1627.07230	0.11938
1622.95313	0.12357
1618.83396	0.12469
1614.71479	0.12202
1610.59562	0.11605
1606.47645	0.10836
1602.35728	0.09931
1598.23811	0.09049
1594.11894	0.08263
1589.99977	0.07579
1585.88060	0.07033
1581.76143	0.06646
1577.64226	0.06477
1573.52309	0.06402
1569.40392	0.06488
1565.28475	0.06641
1561.16558	0.07023
1557.04640	0.07497
1552.92723	0.07845
1548.80806	0.08193
1544.68889	0.08602
1540.56972	0.09193
1536.45055	0.09677
1532.33138	0.10132
1528.21221	0.10538
1524.09304	0.11026
1519.97387	0.11599
1515.85470	0.12076
1511.73553	0.12350
1507.61636	0.12451
1503.49719	0.12188
1499.37802	0.11849
1495.25885	0.11382
1491.13968	0.10768
1487.02051	0.10102
1482.90134	0.09458
1478.78217	0.08924
1474.66300	0.08476
1470.54383	0.08057
1466.42466	0.07767
1462.30549	0.07593
1458.18632	0.07676
1454.06715	0.07912
1449.94797	0.08258
1445.82880	0.08569
1441.70963	0.08691
1437.59046	0.08648
1433.47129	0.08337
1429.35212	0.07957
1425.23295	0.07626
1421.11378	0.07430
1416.99461	0.07321
1412.87544	0.07285
1408.75627	0.07313
1404.63710	0.07295
1400.51793	0.07216
1396.39876	0.07116
1392.27959	0.06996
1388.16042	0.06915
1384.04125	0.06832
1379.92208	0.06756
1375.80291	0.06712
1371.68374	0.06684
1367.56457	0.06640
1363.44540	0.06533
1359.32623	0.06350
1355.20706	0.06180
1351.08789	0.06058
1346.96872	0.05978
1342.84954	0.05949
1338.73037	0.05950
1334.61120	0.05924
1330.49203	0.05876
1326.37286	0.05799
1322.25369	0.05702
1318.13452	0.05611
1314.01535	0.05542
1309.89618	0.05489
1305.77701	0.05430
1301.65784	0.05361
1297.53867	0.05294
1293.41950	0.05241
1289.30033	0.05206
1285.18116	0.05195
1281.06199	0.05227
1276.94282	0.05333
1272.82365	0.05526
1268.70448	0.05773
1264.58531	0.05996
1260.46614	0.06132
1256.34697	0.06174
1252.22780	0.06183
1248.10863	0.06228
1243.98946	0.06343
1239.87029	0.06529
1235.75111	0.06770
1231.63194	0.07005
1227.51277	0.07152
1223.39360	0.07170
1219.27443	0.07081
1215.15526	0.06912
1211.03609	0.06672
1206.91692	0.06383
1202.79775	0.06080
1198.67858	0.05793
1194.55941	0.05542
1190.44024	0.05332
1186.32107	0.05170
1182.20190	0.05080
1178.08273	0.05089
1173.96356	0.05180
1169.84439	0.05289
1165.72522	0.05359
1161.60605	0.05374
1157.48688	0.05328
1153.36771	0.05221
1149.24854	0.05064
1145.12937	0.04894
1141.01020	0.04738
1136.89103	0.04598
1132.77186	0.04481
1128.65268	0.04388
1124.53351	0.04313
1120.41434	0.04243
1116.29517	0.04180
1112.17600	0.04139
1108.05683	0.04122
1103.93766	0.04108
1099.81849	0.04076
1095.69932	0.04034
1091.58015	0.04017
1087.46098	0.04054
1083.34181	0.04149
1079.22264	0.04289
1075.10347	0.04444
1070.98430	0.04571
1066.86513	0.04646
1062.74596	0.04669
1058.62679	0.04644
1054.50762	0.04583
1050.38845	0.04513
1046.26928	0.04456
1042.15011	0.04408
1038.03094	0.04348
1033.91177	0.04260
1029.79260	0.04152
1025.67343	0.04049
1021.55425	0.03974
1017.43508	0.03937
1013.31591	0.03929
1009.19674	0.03938
1005.07757	0.03971
1000.95840	0.04021
996.83923	0.04045
992.72006	0.03995
988.60089	0.03889
984.48172	0.03814
980.36255	0.03826
976.24338	0.03875
972.12421	0.03869
968.00504	0.03778
963.88587	0.03648
959.76670	0.03530
955.64753	0.03437
951.52836	0.03365
947.40919	0.03310
943.29002	0.03267
939.17085	0.03231
935.05168	0.03202
930.93251	0.03182
926.81334	0.03158
922.69417	0.03113
918.57500	0.03048
914.45582	0.02978
910.33665	0.02917
906.21748	0.02870
902.09831	0.02836
897.97914	0.02808
893.85997	0.02778
889.74080	0.02751
885.62163	0.02729
881.50246	0.02704
877.38329	0.02677
873.26412	0.02642
869.14495	0.02596
865.02578	0.02555
860.90661	0.02541
856.78744	0.02556
852.66827	0.02583
848.54910	0.02585
844.42993	0.02552
840.31076	0.02529
836.19159	0.02533
832.07242	0.02552
827.95325	0.02571
823.83408	0.02570
819.71491	0.02546
815.59574	0.02518
811.47657	0.02500
807.35740	0.02488
803.23822	0.02473
799.11905	0.02452
794.99988	0.02435
790.88071	0.02436
786.76154	0.02452
782.64237	0.02475
778.52320	0.02510
774.40403	0.02558
770.28486	0.02606
766.16569	0.02641
762.04652	0.02663
757.92735	0.02686
753.80818	0.02721
749.68901	0.02779
745.56984	0.02862
741.45067	0.02955
737.33150	0.03060
733.21233	0.03180
729.09316	0.03308
724.97399	0.03432
720.85482	0.03545
716.73565	0.03628
712.61648	0.03707
708.49731	0.03792
704.37814	0.03879
700.25897	0.03958
696.13979	0.04023
692.02062	0.04070
687.90145	0.04087
683.78228	0.04081
679.66311	0.04082
675.54394	0.04069
671.42477	0.04003
667.30560	0.04106
663.18643	0.04030
659.06726	0.04078
654.94809	0.04108
650.82892	0.04153
646.70975	0.04205
642.59058	0.04235
638.47141	0.04252
634.35224	0.04285
630.23307	0.04311
626.11390	0.04305
621.99473	0.04284
617.87556	0.04276
613.75639	0.04271
609.63722	0.04246
605.51805	0.04184
601.39888	0.04085
597.27971	0.03977
593.16054	0.03890
589.04136	0.03830
584.92219	0.03783
580.80302	0.03729
576.68385	0.03674
572.56468	0.03647
568.44551	0.03681
564.32634	0.03780
560.20717	0.03920
556.08800	0.04069
551.96883	0.04195
547.84966	0.04258
543.73049	0.04238
539.61132	0.04152
535.49215	0.04043
531.37298	0.03936
527.25381	0.03839
523.13464	0.03750
519.01547	0.03689
514.89630	0.03641
510.77713	0.03578
506.65796	0.03500
502.53879	0.03416
498.41962	0.03342
494.30045	0.03308
490.18128	0.03297
486.06211	0.03270
481.94293	0.03213
477.82376	0.03150
473.70459	0.03101
469.58542	0.03040
465.46625	0.02963
461.34708	0.02895
457.22791	0.02852
453.10874	0.02827
448.98957	0.02806
444.87040	0.02766
440.75123	0.02728
436.63206	0.02726
432.51289	0.02755
428.39372	0.02804
424.27455	0.02837
420.15538	0.02820
416.03621	0.02717
411.91704	0.02597
407.79787	0.02505
403.67870	0.02444
399.55953	0.02405
