3997.65486	0.03881
3995.59527	0.03847
3993.53569	0.03835
3991.47610	0.03848
3989.41652	0.03864
3987.35693	0.03867
3985.29735	0.03860
3983.23776	0.03854
3981.17817	0.03856
3979.11859	0.03861
3977.05900	0.03862
3974.99942	0.03846
3972.93983	0.03817
3970.88025	0.03802
3968.82066	0.03820
3966.76108	0.03871
3964.70149	0.03933
3962.64191	0.03970
3960.58232	0.03963
3958.52274	0.03927
3956.46315	0.03884
3954.40357	0.03845
3952.34398	0.03827
3950.28440	0.03840
3948.22481	0.03855
3946.16523	0.03851
3944.10564	0.03840
3942.04606	0.03829
3939.98647	0.03823
3937.92689	0.03837
3935.86730	0.03877
3933.80772	0.03914
3931.74813	0.03909
3929.68855	0.03863
3927.62896	0.03829
3925.56937	0.03802
3923.50979	0.03747
3921.45020	0.03700
3919.39062	0.03715
3917.33103	0.03755
3915.27145	0.03766
3913.21186	0.03756
3911.15228	0.03740
3909.09269	0.03722
3907.03311	0.03718
3904.97352	0.03720
3902.91394	0.03691
3900.85435	0.03634
3898.79477	0.03573
3896.73518	0.03546
3894.67560	0.03600
3892.61601	0.03682
3890.55643	0.03683
3888.49684	0.03649
3886.43726	0.03658
3884.37767	0.03674
3882.31809	0.03684
3880.25850	0.03687
3878.19892	0.03656
3876.13933	0.03624
3874.07974	0.03636
3872.02016	0.03670
3869.96057	0.03673
3867.90099	0.03654
3865.84140	0.03670
3863.78182	0.03672
3861.72223	0.03551
3859.66265	0.03371
3857.60306	0.03371
3855.54348	0.03610
3853.48389	0.03774
3851.42431	0.03644
3849.36472	0.03469
3847.30514	0.03472
3845.24555	0.03551
3843.18597	0.03576
3841.12638	0.03581
3839.06680	0.03597
3837.00721	0.03555
3834.94763	0.03471
3832.88804	0.03446
3830.82846	0.03477
3828.76887	0.03496
3826.70929	0.03484
3824.64970	0.03492
3822.59012	0.03522
3820.53053	0.03507
3818.47094	0.03486
3816.41136	0.03496
3814.35177	0.03436
3812.29219	0.03342
3810.23260	0.03381
3808.17302	0.03491
3806.11343	0.03499
3804.05385	0.03468
3801.99426	0.03484
3799.93468	0.03477
3797.87509	0.03448
3795.81551	0.03460
3793.75592	0.03484
3791.69634	0.03501
3789.63675	0.03530
3787.57717	0.03558
3785.51758	0.03560
3783.45800	0.03548
3781.39841	0.03550
3779.33883	0.03541
3777.27924	0.03484
3775.21966	0.03427
3773.16007	0.03447
3771.10049	0.03514
3769.04090	0.03538
3766.98132	0.03492
3764.92173	0.03424
3762.86214	0.03396
3760.80256	0.03410
3758.74297	0.03377
3756.68339	0.03277
3754.62380	0.03254
3752.56422	0.03340
3750.50463	0.03348
3748.44505	0.03285
3746.38546	0.03350
3744.32588	0.03419
3742.26629	0.03282
3740.20671	0.03131
3738.14712	0.03167
3736.08754	0.03270
3734.02795	0.03280
3731.96837	0.03210
3729.90878	0.03164
3727.84920	0.03206
3725.78961	0.03296
3723.73003	0.03351
3721.67044	0.03343
3719.61086	0.03285
3717.55127	0.03208
3715.49169	0.03190
3713.43210	0.03250
3711.37251	0.03295
3709.31293	0.03266
3707.25334	0.03248
3705.19376	0.03323
3703.13417	0.03432
3701.07459	0.03466
3699.01500	0.03412
3696.95542	0.03337
3694.89583	0.03280
3692.83625	0.03272
3690.77666	0.03318
3688.71708	0.03320
3686.65749	0.03231
3684.59791	0.03164
3682.53832	0.03176
3680.47874	0.03218
3678.41915	0.03275
3676.35957	0.03294
3674.29998	0.03211
3672.24040	0.03159
3670.18081	0.03194
3668.12123	0.03178
3666.06164	0.03115
3664.00206	0.03110
3661.94247	0.03139
3659.88289	0.03167
3657.82330	0.03185
3655.76371	0.03149
3653.70413	0.03118
3651.64454	0.03212
3649.58496	0.03335
3647.52537	0.03315
3645.46579	0.03225
3643.40620	0.03219
3641.34662	0.03279
3639.28703	0.03319
3637.22745	0.03318
3635.16786	0.03294
3633.10828	0.03309
3631.04869	0.03416
3628.98911	0.03490
3626.92952	0.03390
3624.86994	0.03246
3622.81035	0.03249
3620.75077	0.03349
3618.69118	0.03392
3616.63160	0.03374
3614.57201	0.03383
3612.51243	0.03434
3610.45284	0.03474
3608.39326	0.03477
3606.33367	0.03453
3604.27408	0.03452
3602.21450	0.03501
3600.15491	0.03566
3598.09533	0.03623
3596.03574	0.03660
3593.97616	0.03648
3591.91657	0.03618
3589.85699	0.03639
3587.79740	0.03677
3585.73782	0.03649
3583.67823	0.03589
3581.61865	0.03573
3579.55906	0.03592
3577.49948	0.03608
3575.43989	0.03610
3573.38031	0.03604
3571.32072	0.03618
3569.26114	0.03668
3567.20155	0.03703
3565.14197	0.03702
3563.08238	0.03726
3561.02280	0.03802
3558.96321	0.03867
3556.90363	0.03881
3554.84404	0.03866
3552.78446	0.03839
3550.72487	0.03814
3548.66528	0.03820
3546.60570	0.03862
3544.54611	0.03912
3542.48653	0.03961
3540.42694	0.04015
3538.36736	0.04058
3536.30777	0.04065
3534.24819	0.04044
3532.18860	0.04031
3530.12902	0.04049
3528.06943	0.04089
3526.00985	0.04128
3523.95026	0.04154
3521.89068	0.04164
3519.83109	0.04167
3517.77151	0.04168
3515.71192	0.04170
3513.65234	0.04183
3511.59275	0.04210
3509.53317	0.04229
3507.47358	0.04226
3505.41400	0.04210
3503.35441	0.04194
3501.29483	0.04188
3499.23524	0.04218
3497.17565	0.04283
3495.11607	0.04338
3493.05648	0.04353
3490.99690	0.04340
3488.93731	0.04326
3486.87773	0.04335
3484.81814	0.04379
3482.75856	0.04440
3480.69897	0.04475
3478.63939	0.04461
3476.57980	0.04418
3474.52022	0.04377
3472.46063	0.04365
3470.40105	0.04397
3468.34146	0.04459
3466.28188	0.04511
3464.22229	0.04528
3462.16271	0.04516
3460.10312	0.04502
3458.04354	0.04501
3455.98395	0.04509
3453.92437	0.04512
3451.86478	0.04516
3449.80520	0.04534
3447.74561	0.04559
3445.68603	0.04574
3443.62644	0.04575
3441.56685	0.04569
3439.50727	0.04560
3437.44768	0.04552
3435.38810	0.04551
3433.32851	0.04556
3431.26893	0.04566
3429.20934	0.04581
3427.14976	0.04603
3425.09017	0.04629
3423.03059	0.04651
3420.97100	0.04663
3418.91142	0.04666
3416.85183	0.04675
3414.79225	0.04699
3412.73266	0.04738
3410.67308	0.04784
3408.61349	0.04827
3406.55391	0.04854
3404.49432	0.04858
3402.43474	0.04847
3400.37515	0.04842
3398.31557	0.04860
3396.25598	0.04901
3394.19640	0.04955
3392.13681	0.04999
3390.07723	0.05019
3388.01764	0.05023
3385.95805	0.05030
3383.89847	0.05045
3381.83888	0.05057
3379.77930	0.05060
3377.71971	0.05055
3375.66013	0.05063
3373.60054	0.05099
3371.54096	0.05162
3369.48137	0.05224
3367.42179	0.05264
3365.36220	0.05281
3363.30262	0.05296
3361.24303	0.05325
3359.18345	0.05372
3357.12386	0.05429
3355.06428	0.05489
3353.00469	0.05548
3350.94511	0.05607
3348.88552	0.05660
3346.82594	0.05700
3344.76635	0.05732
3342.70677	0.05776
3340.64718	0.05851
3338.58760	0.05957
3336.52801	0.06072
3334.46842	0.06179
3332.40884	0.06281
3330.34925	0.06395
3328.28967	0.06532
3326.23008	0.06687
3324.17050	0.06853
3322.11091	0.07021
3320.05133	0.07192
3317.99174	0.07362
3315.93216	0.07531
3313.87257	0.07709
3311.81299	0.07912
3309.75340	0.08144
3307.69382	0.08383
3305.63423	0.08609
3303.57465	0.08824
3301.51506	0.09039
3299.45548	0.09261
3297.39589	0.09489
3295.33631	0.09721
3293.27672	0.09954
3291.21714	0.10176
3289.15755	0.10376
3287.09797	0.10550
3285.03838	0.10704
3282.97880	0.10840
3280.91921	0.10955
3278.85962	0.11045
3276.80004	0.11108
3274.74045	0.11140
3272.68087	0.11141
3270.62128	0.11117
3268.56170	0.11072
3266.50211	0.11006
3264.44253	0.10917
3262.38294	0.10811
3260.32336	0.10689
3258.26377	0.10548
3256.20419	0.10388
3254.14460	0.10219
3252.08502	0.10053
3250.02543	0.09900
3247.96585	0.09763
3245.90626	0.09644
3243.84668	0.09540
3241.78709	0.09444
3239.72751	0.09346
3237.66792	0.09242
3235.60834	0.09132
3233.54875	0.09020
3231.48917	0.08922
3229.42958	0.08847
3227.36999	0.08788
3225.31041	0.08724
3223.25082	0.08642
3221.19124	0.08551
3219.13165	0.08464
3217.07207	0.08387
3215.01248	0.08315
3212.95290	0.08241
3210.89331	0.08159
3208.83373	0.08070
3206.77414	0.07978
3204.71456	0.07898
3202.65497	0.07835
3200.59539	0.07780
3198.53580	0.07720
3196.47622	0.07650
3194.41663	0.07576
3192.35705	0.07497
3190.29746	0.07409
3188.23788	0.07317
3186.17829	0.07234
3184.11871	0.07166
3182.05912	0.07107
3179.99954	0.07047
3177.93995	0.06983
3175.88037	0.06914
3173.82078	0.06844
3171.76119	0.06785
3169.70161	0.06740
3167.64202	0.06701
3165.58244	0.06655
3163.52285	0.06597
3161.46327	0.06532
3159.40368	0.06466
3157.34410	0.06403
3155.28451	0.06345
3153.22493	0.06294
3151.16534	0.06247
3149.10576	0.06205
3147.04617	0.06174
3144.98659	0.06152
3142.92700	0.06123
3140.86742	0.06081
3138.80783	0.06034
3136.74825	0.05997
3134.68866	0.05976
3132.62908	0.05958
3130.56949	0.05933
3128.50991	0.05903
3126.45032	0.05880
3124.39074	0.05868
3122.33115	0.05856
3120.27156	0.05836
3118.21198	0.05812
3116.15239	0.05799
3114.09281	0.05796
3112.03322	0.05795
3109.97364	0.05790
3107.91405	0.05788
3105.85447	0.05798
3103.79488	0.05823
3101.73530	0.05862
3099.67571	0.05903
3097.61613	0.05937
3095.55654	0.05961
3093.49696	0.05977
3091.43737	0.05987
3089.37779	0.05990
3087.31820	0.05984
3085.25862	0.05976
3083.19903	0.05980
3081.13945	0.06001
3079.07986	0.06033
3077.02028	0.06059
3074.96069	0.06070
3072.90111	0.06068
3070.84152	0.06066
3068.78194	0.06069
3066.72235	0.06066
3064.66276	0.06046
3062.60318	0.06013
3060.54359	0.05982
3058.48401	0.05960
3056.42442	0.05944
3054.36484	0.05922
3052.30525	0.05888
3050.24567	0.05842
3048.18608	0.05795
3046.12650	0.05755
3044.06691	0.05719
3042.00733	0.05680
3039.94774	0.05642
3037.88816	0.05610
3035.82857	0.05580
3033.76899	0.05541
3031.70940	0.05488
3029.64982	0.05436
3027.59023	0.05397
3025.53065	0.05369
3023.47106	0.05342
3021.41148	0.05316
3019.35189	0.05298
3017.29231	0.05288
3015.23272	0.05281
3013.17313	0.05270
3011.11355	0.05251
3009.05396	0.05228
3006.99438	0.05202
3004.93479	0.05174
3002.87521	0.05147
3000.81562	0.05131
2998.75604	0.05136
2996.69645	0.05162
2994.63687	0.05195
2992.57728	0.05226
2990.51770	0.05250
2988.45811	0.05270
2986.39853	0.05291
2984.33894	0.05315
2982.27936	0.05341
2980.21977	0.05366
2978.16019	0.05396
2976.10060	0.05430
2974.04102	0.05458
2971.98143	0.05475
2969.92185	0.05484
2967.86226	0.05488
2965.80268	0.05485
2963.74309	0.05470
2961.68351	0.05447
2959.62392	0.05421
2957.56433	0.05396
2955.50475	0.05375
2953.44516	0.05364
2951.38558	0.05364
2949.32599	0.05372
2947.26641	0.05379
2945.20682	0.05384
2943.14724	0.05401
2941.08765	0.05445
2939.02807	0.05522
2936.96848	0.05613
2934.90890	0.05689
2932.84931	0.05737
2930.78973	0.05763
2928.73014	0.05784
2926.67056	0.05811
2924.61097	0.05842
2922.55139	0.05876
2920.49180	0.05906
2918.43222	0.05914
2916.37263	0.05874
2914.31305	0.05783
2912.25346	0.05667
2910.19388	0.05567
2908.13429	0.05495
2906.07471	0.05440
2904.01512	0.05387
2901.95553	0.05334
2899.89595	0.05290
2897.83636	0.05264
2895.77678	0.05245
2893.71719	0.05218
2891.65761	0.05184
2889.59802	0.05157
2887.53844	0.05146
2885.47885	0.05145
2883.41927	0.05144
2881.35968	0.05139
2879.30010	0.05132
2877.24051	0.05132
2875.18093	0.05149
2873.12134	0.05179
2871.06176	0.05202
2869.00217	0.05200
2866.94259	0.05173
2864.88300	0.05135
2862.82342	0.05107
2860.76383	0.05099
2858.70425	0.05107
2856.64466	0.05121
2854.58508	0.05133
2852.52549	0.05142
2850.46590	0.05141
2848.40632	0.05117
2846.34673	0.05058
2844.28715	0.04976
2842.22756	0.04894
2840.16798	0.04828
2838.10839	0.04779
2836.04881	0.04747
2833.98922	0.04727
2831.92964	0.04710
2829.87005	0.04689
2827.81047	0.04668
2825.75088	0.04655
2823.69130	0.04649
2821.63171	0.04644
2819.57213	0.04638
2817.51254	0.04631
2815.45296	0.04622
2813.39337	0.04609
2811.33379	0.04593
2809.27420	0.04576
2807.21462	0.04561
2805.15503	0.04546
2803.09545	0.04533
2801.03586	0.04526
2798.97628	0.04525
2796.91669	0.04530
2794.85710	0.04539
2792.79752	0.04545
2790.73793	0.04544
2788.67835	0.04537
2786.61876	0.04525
2784.55918	0.04510
2782.49959	0.04492
2780.44001	0.04477
2778.38042	0.04469
2776.32084	0.04467
2774.26125	0.04469
2772.20167	0.04468
2770.14208	0.04458
2768.08250	0.04435
2766.02291	0.04406
2763.96333	0.04382
2761.90374	0.04364
2759.84416	0.04345
2757.78457	0.04323
2755.72499	0.04305
2753.66540	0.04293
2751.60582	0.04288
2749.54623	0.04289
2747.48665	0.04291
2745.42706	0.04288
2743.36747	0.04272
2741.30789	0.04248
2739.24830	0.04224
2737.18872	0.04203
2735.12913	0.04189
2733.06955	0.04184
2731.00996	0.04187
2728.95038	0.04192
2726.89079	0.04189
2724.83121	0.04177
2722.77162	0.04160
2720.71204	0.04146
2718.65245	0.04137
2716.59287	0.04134
2714.53328	0.04133
2712.47370	0.04130
2710.41411	0.04120
2708.35453	0.04107
2706.29494	0.04093
2704.23536	0.04079
2702.17577	0.04066
2700.11619	0.04059
2698.05660	0.04063
2695.99702	0.04078
2693.93743	0.04090
2691.87785	0.04087
2689.81826	0.04071
2687.75867	0.04052
2685.69909	0.04036
2683.63950	0.04022
2681.57992	0.04008
2679.52033	0.03994
2677.46075	0.03983
2675.40116	0.03982
2673.34158	0.03985
2671.28199	0.03982
2669.22241	0.03968
2667.16282	0.03953
2665.10324	0.03946
2663.04365	0.03947
2660.98407	0.03946
2658.92448	0.03944
2656.86490	0.03947
2654.80531	0.03958
2652.74573	0.03973
2650.68614	0.03983
2648.62656	0.03981
2646.56697	0.03967
2644.50739	0.03949
2642.44780	0.03931
2640.38822	0.03915
2638.32863	0.03900
2636.26904	0.03887
2634.20946	0.03880
2632.14987	0.03877
2630.09029	0.03874
2628.03070	0.03868
2625.97112	0.03863
2623.91153	0.03865
2621.85195	0.03871
2619.79236	0.03873
2617.73278	0.03871
2615.67319	0.03865
2613.61361	0.03852
2611.55402	0.03827
2609.49444	0.03795
2607.43485	0.03766
2605.37527	0.03744
2603.31568	0.03727
2601.25610	0.03716
2599.19651	0.03711
2597.13693	0.03704
2595.07734	0.03689
2593.01776	0.03669
2590.95817	0.03655
2588.89859	0.03651
2586.83900	0.03652
2584.77942	0.03651
2582.71983	0.03648
2580.66024	0.03647
2578.60066	0.03650
2576.54107	0.03657
2574.48149	0.03667
2572.42190	0.03672
2570.36232	0.03665
2568.30273	0.03647
2566.24315	0.03631
2564.18356	0.03622
2562.12398	0.03614
2560.06439	0.03607
2558.00481	0.03606
2555.94522	0.03607
2553.88564	0.03604
2551.82605	0.03594
2549.76647	0.03579
2547.70688	0.03559
2545.64730	0.03533
2543.58771	0.03510
2541.52813	0.03491
2539.46854	0.03470
2537.40896	0.03451
2535.34937	0.03445
2533.28979	0.03455
2531.23020	0.03470
2529.17062	0.03476
2527.11103	0.03473
2525.05144	0.03471
2522.99186	0.03475
2520.93227	0.03476
2518.87269	0.03466
2516.81310	0.03451
2514.75352	0.03442
2512.69393	0.03439
2510.63435	0.03436
2508.57476	0.03429
2506.51518	0.03420
2504.45559	0.03412
2502.39601	0.03405
2500.33642	0.03394
2498.27684	0.03375
2496.21725	0.03354
2494.15767	0.03343
2492.09808	0.03343
2490.03850	0.03345
2487.97891	0.03344
2485.91933	0.03346
2483.85974	0.03350
2481.80016	0.03349
2479.74057	0.03337
2477.68099	0.03322
2475.62140	0.03311
2473.56181	0.03303
2471.50223	0.03293
2469.44264	0.03280
2467.38306	0.03269
2465.32347	0.03267
2463.26389	0.03275
2461.20430	0.03284
2459.14472	0.03285
2457.08513	0.03279
2455.02555	0.03274
2452.96596	0.03277
2450.90638	0.03287
2448.84679	0.03295
2446.78721	0.03301
2444.72762	0.03310
2442.66804	0.03319
2440.60845	0.03322
2438.54887	0.03309
2436.48928	0.03281
2434.42970	0.03247
2432.37011	0.03223
2430.31053	0.03218
2428.25094	0.03230
2426.19136	0.03243
2424.13177	0.03243
2422.07219	0.03227
2420.01260	0.03205
2417.95301	0.03191
2415.89343	0.03194
2413.83384	0.03208
2411.77426	0.03215
2409.71467	0.03202
2407.65509	0.03178
2405.59550	0.03159
2403.53592	0.03154
2401.47633	0.03153
2399.41675	0.03156
2397.35716	0.03150
2395.29758	0.03150
2393.23799	0.03159
2391.17841	0.03164
2389.11882	0.03161
2387.05924	0.03157
2384.99965	0.03157
2382.94007	0.03160
2380.88048	0.03167
2378.82090	0.03181
2376.76131	0.03213
2374.70173	0.03238
2372.64214	0.03262
2370.58256	0.03279
2368.52297	0.03254
2366.46338	0.03258
2364.40380	0.03260
2362.34421	0.03268
2360.28463	0.03318
2358.22504	0.03299
2356.16546	0.03241
2354.10587	0.03201
2352.04629	0.03248
2349.98670	0.03394
2347.92712	0.03362
2345.86753	0.03220
2343.80795	0.03206
2341.74836	0.03214
2339.68878	0.03235
2337.62919	0.03246
2335.56961	0.03206
2333.51002	0.03174
2331.45044	0.03149
2329.39085	0.03164
2327.33127	0.03187
2325.27168	0.03236
2323.21210	0.03263
2321.15251	0.03270
2319.09293	0.03271
2317.03334	0.03277
2314.97376	0.03266
2312.91417	0.03242
2310.85458	0.03196
2308.79500	0.03132
2306.73541	0.03065
2304.67583	0.03017
2302.61624	0.02989
2300.55666	0.02976
2298.49707	0.02969
2296.43749	0.02967
2294.37790	0.02971
2292.31832	0.02987
2290.25873	0.03011
2288.19915	0.03040
2286.13956	0.03070
2284.07998	0.03093
2282.02039	0.03097
2279.96081	0.03078
2277.90122	0.03038
2275.84164	0.02983
2273.78205	0.02930
2271.72247	0.02900
2269.66288	0.02900
2267.60330	0.02918
2265.54371	0.02935
2263.48413	0.02942
2261.42454	0.02930
2259.36495	0.02898
2257.30537	0.02858
2255.24578	0.02829
2253.18620	0.02814
2251.12661	0.02799
2249.06703	0.02775
2247.00744	0.02739
2244.94786	0.02725
2242.88827	0.02740
2240.82869	0.02761
2238.76910	0.02766
2236.70952	0.02752
2234.64993	0.02738
2232.59035	0.02735
2230.53076	0.02746
2228.47118	0.02768
2226.41159	0.02793
2224.35201	0.02805
2222.29242	0.02799
2220.23284	0.02783
2218.17325	0.02774
2216.11367	0.02774
2214.05408	0.02771
2211.99450	0.02757
2209.93491	0.02736
2207.87533	0.02714
2205.81574	0.02694
2203.75615	0.02686
2201.69657	0.02699
2199.63698	0.02717
2197.57740	0.02713
2195.51781	0.02688
2193.45823	0.02660
2191.39864	0.02638
2189.33906	0.02620
2187.27947	0.02613
2185.21989	0.02618
2183.16030	0.02627
2181.10072	0.02632
2179.04113	0.02629
2176.98155	0.02607
2174.92196	0.02563
2172.86238	0.02523
2170.80279	0.02509
2168.74321	0.02518
2166.68362	0.02540
2164.62404	0.02576
2162.56445	0.02600
2160.50487	0.02563
2158.44528	0.02464
2156.38570	0.02363
2154.32611	0.02296
2152.26652	0.02246
2150.20694	0.02204
2148.14735	0.02186
2146.08777	0.02209
2144.02818	0.02263
2141.96860	0.02328
2139.90901	0.02378
2137.84943	0.02392
2135.78984	0.02368
2133.73026	0.02329
2131.67067	0.02307
2129.61109	0.02307
2127.55150	0.02318
2125.49192	0.02340
2123.43233	0.02381
2121.37275	0.02430
2119.31316	0.02467
2117.25358	0.02482
2115.19399	0.02486
2113.13441	0.02489
2111.07482	0.02487
2109.01524	0.02474
2106.95565	0.02451
2104.89607	0.02426
2102.83648	0.02410
2100.77690	0.02407
2098.71731	0.02408
2096.65772	0.02416
2094.59814	0.02423
2092.53855	0.02427
2090.47897	0.02426
2088.41938	0.02417
2086.35980	0.02396
2084.30021	0.02363
2082.24063	0.02332
2080.18104	0.02322
2078.12146	0.02339
2076.06187	0.02367
2074.00229	0.02393
2071.94270	0.02406
2069.88312	0.02405
2067.82353	0.02388
2065.76395	0.02359
2063.70436	0.02334
2061.64478	0.02330
2059.58519	0.02345
2057.52561	0.02357
2055.46602	0.02357
2053.40644	0.02355
2051.34685	0.02359
2049.28727	0.02351
2047.22768	0.02314
2045.16810	0.02259
2043.10851	0.02209
2041.04892	0.02170
2038.98934	0.02133
2036.92975	0.02103
2034.87017	0.02097
2032.81058	0.02109
2030.75100	0.02113
2028.69141	0.02090
2026.63183	0.02064
2024.57224	0.02075
2022.51266	0.02125
2020.45307	0.02182
2018.39349	0.02214
2016.33390	0.02222
2014.27432	0.02225
2012.21473	0.02229
2010.15515	0.02218
2008.09556	0.02179
2006.03598	0.02121
2003.97639	0.02065
2001.91681	0.02026
1999.85722	0.02011
1997.79764	0.02015
1995.73805	0.02033
1993.67847	0.02048
1991.61888	0.02046
1989.55929	0.02033
1987.49971	0.02031
1985.44012	0.02037
1983.38054	0.02026
1981.32095	0.01987
1979.26137	0.01939
1977.20178	0.01899
1975.14220	0.01864
1973.08261	0.01831
1971.02303	0.01817
1968.96344	0.01839
1966.90386	0.01886
1964.84427	0.01925
1962.78469	0.01933
1960.72510	0.01911
1958.66552	0.01874
1956.60593	0.01838
1954.54635	0.01815
1952.48676	0.01807
1950.42718	0.01807
1948.36759	0.01796
1946.30801	0.01781
1944.24842	0.01787
1942.18884	0.01814
1940.12925	0.01838
1938.06967	0.01853
1936.01008	0.01872
1933.95049	0.01898
1931.89091	0.01921
1929.83132	0.01927
1927.77174	0.01920
1925.71215	0.01913
1923.65257	0.01908
1921.59298	0.01904
1919.53340	0.01901
1917.47381	0.01891
1915.41423	0.01872
1913.35464	0.01866
1911.29506	0.01878
1909.23547	0.01882
1907.17589	0.01866
1905.11630	0.01838
1903.05672	0.01814
1900.99713	0.01800
1898.93755	0.01798
1896.87796	0.01800
1894.81838	0.01794
1892.75879	0.01779
1890.69921	0.01766
1888.63962	0.01755
1886.58004	0.01752
1884.52045	0.01764
1882.46086	0.01784
1880.40128	0.01798
1878.34169	0.01800
1876.28211	0.01787
1874.22252	0.01764
1872.16294	0.01751
1870.10335	0.01750
1868.04377	0.01737
1865.98418	0.01708
1863.92460	0.01687
1861.86501	0.01681
1859.80543	0.01677
1857.74584	0.01671
1855.68626	0.01665
1853.62667	0.01657
1851.56709	0.01643
1849.50750	0.01629
1847.44792	0.01637
1845.38833	0.01661
1843.32875	0.01658
1841.26916	0.01626
1839.20958	0.01608
1837.14999	0.01605
1835.09041	0.01589
1833.03082	0.01568
1830.97124	0.01551
1828.91165	0.01527
1826.85206	0.01504
1824.79248	0.01495
1822.73289	0.01490
1820.67331	0.01484
1818.61372	0.01481
1816.55414	0.01472
1814.49455	0.01457
1812.43497	0.01450
1810.37538	0.01443
1808.31580	0.01426
1806.25621	0.01409
1804.19663	0.01408
1802.13704	0.01413
1800.07746	0.01398
1798.01787	0.01369
1795.95829	0.01368
1793.89870	0.01399
1791.83912	0.01397
1789.77953	0.01349
1787.71995	0.01318
1785.66036	0.01329
1783.60078	0.01343
1781.54119	0.01335
1779.48161	0.01303
1777.42202	0.01266
1775.36243	0.01257
1773.30285	0.01271
1771.24326	0.01261
1769.18368	0.01223
1767.12409	0.01193
1765.06451	0.01190
1763.00492	0.01204
1760.94534	0.01202
1758.88575	0.01174
1756.82617	0.01137
1754.76658	0.01111
1752.70700	0.01110
1750.64741	0.01113
1748.58783	0.01085
1746.52824	0.01047
1744.46866	0.01035
1742.40907	0.01041
1740.34949	0.01019
1738.28990	0.00984
1736.23032	0.01001
1734.17073	0.01039
1732.11115	0.01010
1730.05156	0.00955
1727.99198	0.00949
1725.93239	0.00963
1723.87281	0.00952
1721.81322	0.00948
1719.75363	0.01000
1717.69405	0.01080
1715.63446	0.01127
1713.57488	0.01172
1711.51529	0.01287
1709.45571	0.01491
1707.39612	0.01755
1705.33654	0.02057
1703.27695	0.02422
1701.21737	0.02821
1699.15778	0.03139
1697.09820	0.03305
1695.03861	0.03344
1692.97903	0.03319
1690.91944	0.03300
1688.85986	0.03344
1686.80027	0.03480
1684.74069	0.03656
1682.68110	0.03760
1680.62152	0.03819
1678.56193	0.03951
1676.50235	0.04151
1674.44276	0.04342
1672.38318	0.04532
1670.32359	0.04752
1668.26401	0.04966
1666.20442	0.05175
1664.14483	0.05426
1662.08525	0.05674
1660.02566	0.05844
1657.96608	0.06010
1655.90649	0.06305
1653.84691	0.06667
1651.78732	0.06905
1649.72774	0.07085
1647.66815	0.07365
1645.60857	0.07675
1643.54898	0.07908
1641.48940	0.08117
1639.42981	0.08405
1637.37023	0.08793
1635.31064	0.09188
1633.25106	0.09508
1631.19147	0.09803
1629.13189	0.10124
1627.07230	0.10449
1625.01272	0.10739
1622.95313	0.10953
1620.89355	0.11089
1618.83396	0.11184
1616.77438	0.11199
1614.71479	0.11075
1612.65520	0.10866
1610.59562	0.10633
1608.53603	0.10345
1606.47645	0.09977
1604.41686	0.09559
1602.35728	0.09127
1600.29769	0.08705
1598.23811	0.08307
1596.17852	0.07935
1594.11894	0.07581
1592.05935	0.07243
1589.99977	0.06930
1587.94018	0.06647
1585.88060	0.06394
1583.82101	0.06164
1581.76143	0.05968
1579.70184	0.05846
1577.64226	0.05800
1575.58267	0.05748
1573.52309	0.05687
1571.46350	0.05702
1569.40392	0.05786
1567.34433	0.05850
1565.28475	0.05889
1563.22516	0.05996
1561.16558	0.06235
1559.10599	0.06510
1557.04640	0.06680
1554.98682	0.06799
1552.92723	0.06965
1550.86765	0.07154
1548.80806	0.07320
1546.74848	0.07471
1544.68889	0.07660
1542.62931	0.07932
1540.56972	0.08225
1538.51014	0.08430
1536.45055	0.08590
1534.39097	0.08795
1532.33138	0.09004
1530.27180	0.09174
1528.21221	0.09338
1526.15263	0.09517
1524.09304	0.09725
1522.03346	0.09964
1519.97387	0.10207
1517.91429	0.10439
1515.85470	0.10640
1513.79512	0.10768
1511.73553	0.10831
1509.67595	0.10885
1507.61636	0.10906
1505.55677	0.10789
1503.49719	0.10571
1501.43760	0.10394
1499.37802	0.10265
1497.31843	0.10076
1495.25885	0.09790
1493.19926	0.09488
1491.13968	0.09219
1489.08009	0.08945
1487.02051	0.08635
1484.96092	0.08334
1482.90134	0.08068
1480.84175	0.07820
1478.78217	0.07585
1476.72258	0.07385
1474.66300	0.07224
1472.60341	0.07057
1470.54383	0.06869
1468.48424	0.06726
1466.42466	0.06644
1464.36507	0.06552
1462.30549	0.06443
1460.24590	0.06428
1458.18632	0.06539
1456.12673	0.06668
1454.06715	0.06778
1452.00756	0.06939
1449.94797	0.07160
1447.88839	0.07366
1445.82880	0.07508
1443.76922	0.07588
1441.70963	0.07629
1439.65005	0.07649
1437.59046	0.07620
1435.53088	0.07489
1433.47129	0.07292
1431.41171	0.07106
1429.35212	0.06938
1427.29254	0.06765
1425.23295	0.06609
1423.17337	0.06499
1421.11378	0.06448
1419.05420	0.06421
1416.99461	0.06379
1414.93503	0.06347
1412.87544	0.06351
1410.81586	0.06367
1408.75627	0.06375
1406.69669	0.06375
1404.63710	0.06357
1402.57752	0.06322
1400.51793	0.06282
1398.45834	0.06242
1396.39876	0.06197
1394.33917	0.06144
1392.27959	0.06092
1390.22000	0.06065
1388.16042	0.06057
1386.10083	0.06030
1384.04125	0.05979
1381.98166	0.05934
1379.92208	0.05900
1377.86249	0.05878
1375.80291	0.05871
1373.74332	0.05870
1371.68374	0.05867
1369.62415	0.05861
1367.56457	0.05846
1365.50498	0.05814
1363.44540	0.05759
1361.38581	0.05676
1359.32623	0.05577
1357.26664	0.05488
1355.20706	0.05415
1353.14747	0.05351
1351.08789	0.05299
1349.02830	0.05263
1346.96872	0.05238
1344.90913	0.05219
1342.84954	0.05210
1340.78996	0.05213
1338.73037	0.05213
1336.67079	0.05205
1334.61120	0.05194
1332.55162	0.05182
1330.49203	0.05163
1328.43245	0.05131
1326.37286	0.05088
1324.31328	0.05039
1322.25369	0.04993
1320.19411	0.04952
1318.13452	0.04915
1316.07494	0.04885
1314.01535	0.04859
1311.95577	0.04835
1309.89618	0.04810
1307.83660	0.04785
1305.77701	0.04761
1303.71743	0.04737
1301.65784	0.04711
1299.59826	0.04683
1297.53867	0.04653
1295.47909	0.04624
1293.41950	0.04599
1291.35991	0.04578
1289.30033	0.04561
1287.24074	0.04548
1285.18116	0.04541
1283.12157	0.04543
1281.06199	0.04560
1279.00240	0.04597
1276.94282	0.04654
1274.88323	0.04734
1272.82365	0.04836
1270.76406	0.04953
1268.70448	0.05072
1266.64489	0.05181
1264.58531	0.05272
1262.52572	0.05338
1260.46614	0.05380
1258.40655	0.05401
1256.34697	0.05408
1254.28738	0.05410
1252.22780	0.05414
1250.16821	0.05428
1248.10863	0.05454
1246.04904	0.05497
1243.98946	0.05558
1241.92987	0.05636
1239.87029	0.05727
1237.81070	0.05829
1235.75111	0.05937
1233.69153	0.06046
1231.63194	0.06145
1229.57236	0.06223
1227.51277	0.06272
1225.45319	0.06288
1223.39360	0.06275
1221.33402	0.06238
1219.27443	0.06182
1217.21485	0.06110
1215.15526	0.06025
1213.09568	0.05926
1211.03609	0.05814
1208.97651	0.05688
1206.91692	0.05552
1204.85734	0.05409
1202.79775	0.05264
1200.73817	0.05123
1198.67858	0.04993
1196.61900	0.04879
1194.55941	0.04782
1192.49983	0.04699
1190.44024	0.04626
1188.38066	0.04556
1186.32107	0.04489
1184.26149	0.04431
1182.20190	0.04394
1180.14231	0.04385
1178.08273	0.04404
1176.02314	0.04445
1173.96356	0.04500
1171.90397	0.04556
1169.84439	0.04601
1167.78480	0.04630
1165.72522	0.04647
1163.66563	0.04656
1161.60605	0.04657
1159.54646	0.04650
1157.48688	0.04628
1155.42729	0.04588
1153.36771	0.04530
1151.30812	0.04458
1149.24854	0.04377
1147.18895	0.04295
1145.12937	0.04217
1143.06978	0.04145
1141.01020	0.04076
1138.95061	0.04012
1136.89103	0.03954
1134.83144	0.03906
1132.77186	0.03866
1130.71227	0.03832
1128.65268	0.03801
1126.59310	0.03769
1124.53351	0.03738
1122.47393	0.03708
1120.41434	0.03682
1118.35476	0.03658
1116.29517	0.03635
1114.23559	0.03612
1112.17600	0.03589
1110.11642	0.03569
1108.05683	0.03557
1105.99725	0.03552
1103.93766	0.03549
1101.87808	0.03538
1099.81849	0.03519
1097.75891	0.03495
1095.69932	0.03473
1093.63974	0.03458
1091.58015	0.03455
1089.52057	0.03464
1087.46098	0.03489
1085.40140	0.03529
1083.34181	0.03586
1081.28223	0.03658
1079.22264	0.03738
1077.16306	0.03819
1075.10347	0.03895
1073.04388	0.03963
1070.98430	0.04018
1068.92471	0.04058
1066.86513	0.04081
1064.80554	0.04090
1062.74596	0.04087
1060.68637	0.04078
1058.62679	0.04063
1056.56720	0.04043
1054.50762	0.04015
1052.44803	0.03984
1050.38845	0.03951
1048.32886	0.03922
1046.26928	0.03897
1044.20969	0.03873
1042.15011	0.03846
1040.09052	0.03815
1038.03094	0.03783
1035.97135	0.03751
1033.91177	0.03714
1031.85218	0.03667
1029.79260	0.03612
1027.73301	0.03553
1025.67343	0.03500
1023.61384	0.03456
1021.55425	0.03427
1019.49467	0.03412
1017.43508	0.03408
1015.37550	0.03407
1013.31591	0.03402
1011.25633	0.03392
1009.19674	0.03382
1007.13716	0.03383
1005.07757	0.03397
1003.01799	0.03423
1000.95840	0.03454
998.89882	0.03480
996.83923	0.03493
994.77965	0.03487
992.72006	0.03458
990.66048	0.03409
988.60089	0.03353
986.54131	0.03306
984.48172	0.03276
982.42214	0.03268
980.36255	0.03281
978.30297	0.03305
976.24338	0.03326
974.18380	0.03330
972.12421	0.03310
970.06463	0.03271
968.00504	0.03224
965.94545	0.03174
963.88587	0.03124
961.82628	0.03074
959.76670	0.03030
957.70711	0.02996
955.64753	0.02968
953.58794	0.02939
951.52836	0.02906
949.46877	0.02874
947.40919	0.02848
945.34960	0.02829
943.29002	0.02813
941.23043	0.02802
939.17085	0.02795
937.11126	0.02791
935.05168	0.02785
932.99209	0.02778
930.93251	0.02771
928.87292	0.02766
926.81334	0.02757
924.75375	0.02741
922.69417	0.02715
920.63458	0.02681
918.57500	0.02644
916.51541	0.02610
914.45582	0.02583
912.39624	0.02561
910.33665	0.02538
908.27707	0.02512
906.21748	0.02486
904.15790	0.02465
902.09831	0.02449
900.03873	0.02435
897.97914	0.02419
895.91956	0.02404
893.85997	0.02394
891.80039	0.02389
889.74080	0.02384
887.68122	0.02374
885.62163	0.02360
883.56205	0.02343
881.50246	0.02326
879.44288	0.02309
877.38329	0.02294
875.32371	0.02280
873.26412	0.02270
871.20454	0.02259
869.14495	0.02242
867.08537	0.02219
865.02578	0.02200
862.96620	0.02196
860.90661	0.02206
858.84702	0.02222
856.78744	0.02236
854.72785	0.02251
852.66827	0.02265
850.60868	0.02270
848.54910	0.02262
846.48951	0.02243
844.42993	0.02224
842.37034	0.02213
840.31076	0.02209
838.25117	0.02214
836.19159	0.02225
834.13200	0.02240
832.07242	0.02257
830.01283	0.02273
827.95325	0.02282
825.89366	0.02283
823.83408	0.02273
821.77449	0.02257
819.71491	0.02237
817.65532	0.02216
815.59574	0.02198
813.53615	0.02188
811.47657	0.02184
809.41698	0.02178
807.35740	0.02166
805.29781	0.02149
803.23822	0.02133
801.17864	0.02120
799.11905	0.02110
797.05947	0.02101
794.99988	0.02097
792.94030	0.02101
790.88071	0.02111
788.82113	0.02124
786.76154	0.02135
784.70196	0.02146
782.64237	0.02159
780.58279	0.02177
778.52320	0.02202
776.46362	0.02230
774.40403	0.02254
772.34445	0.02271
770.28486	0.02285
768.22528	0.02303
766.16569	0.02320
764.10611	0.02333
762.04652	0.02341
759.98694	0.02350
757.92735	0.02362
755.86777	0.02376
753.80818	0.02389
751.74859	0.02407
749.68901	0.02434
747.62942	0.02471
745.56984	0.02512
743.51025	0.02555
741.45067	0.02602
739.39108	0.02656
737.33150	0.02714
735.27191	0.02774
733.21233	0.02835
731.15274	0.02895
729.09316	0.02951
727.03357	0.03001
724.97399	0.03050
722.91440	0.03098
720.85482	0.03139
718.79523	0.03180
716.73565	0.03216
714.67606	0.03251
712.61648	0.03289
710.55689	0.03329
708.49731	0.03372
706.43772	0.03418
704.37814	0.03469
702.31855	0.03520
700.25897	0.03564
698.19938	0.03595
696.13979	0.03614
694.08021	0.03627
692.02062	0.03636
689.96104	0.03641
687.90145	0.03645
685.84187	0.03651
683.78228	0.03661
681.72270	0.03671
679.66311	0.03675
677.60353	0.03671
675.54394	0.03663
673.48436	0.03677
671.42477	0.03717
669.36519	0.03679
667.30560	0.03629
665.24602	0.03726
663.18643	0.03688
661.12685	0.03643
659.06726	0.03642
657.00768	0.03662
654.94809	0.03687
652.88851	0.03711
650.82892	0.03726
648.76934	0.03733
646.70975	0.03742
644.65016	0.03753
642.59058	0.03766
640.53099	0.03777
638.47141	0.03786
636.41182	0.03794
634.35224	0.03805
632.29265	0.03819
630.23307	0.03830
628.17348	0.03834
626.11390	0.03832
624.05431	0.03828
621.99473	0.03825
619.93514	0.03824
617.87556	0.03823
615.81597	0.03825
613.75639	0.03830
611.69680	0.03834
609.63722	0.03823
607.57763	0.03790
605.51805	0.03740
603.45846	0.03685
601.39888	0.03638
599.33929	0.03598
597.27971	0.03561
595.22012	0.03526
593.16054	0.03493
591.10095	0.03462
589.04136	0.03430
586.98178	0.03398
584.92219	0.03368
582.86261	0.03340
580.80302	0.03315
578.74344	0.03293
576.68385	0.03276
574.62427	0.03262
572.56468	0.03252
570.50510	0.03251
568.44551	0.03264
566.38593	0.03294
564.32634	0.03343
562.26676	0.03409
560.20717	0.03487
558.14759	0.03573
556.08800	0.03656
554.02842	0.03729
551.96883	0.03786
549.90925	0.03825
547.84966	0.03844
545.79008	0.03838
543.73049	0.03812
541.67091	0.03771
539.61132	0.03722
537.55173	0.03667
535.49215	0.03613
533.43256	0.03561
531.37298	0.03513
529.31339	0.03471
527.25381	0.03434
525.19422	0.03399
523.13464	0.03362
521.07505	0.03328
519.01547	0.03298
516.95588	0.03272
514.89630	0.03245
512.83671	0.03217
510.77713	0.03185
508.71754	0.03151
506.65796	0.03116
504.59837	0.03084
502.53879	0.03062
500.47920	0.03050
498.41962	0.03042
496.36003	0.03031
494.30045	0.03015
492.24086	0.03000
490.18128	0.02986
488.12169	0.02968
486.06211	0.02942
484.00252	0.02911
481.94293	0.02884
479.88335	0.02863
477.82376	0.02841
475.76418	0.02811
473.70459	0.02776
471.64501	0.02743
469.58542	0.02714
467.52584	0.02688
465.46625	0.02660
463.40667	0.02632
461.34708	0.02612
459.28750	0.02601
457.22791	0.02586
455.16833	0.02561
453.10874	0.02534
451.04916	0.02513
448.98957	0.02502
446.92999	0.02498
444.87040	0.02489
442.81082	0.02468
440.75123	0.02437
438.69165	0.02412
436.63206	0.02401
434.57248	0.02406
432.51289	0.02424
430.45330	0.02454
428.39372	0.02489
426.33413	0.02510
424.27455	0.02500
422.21496	0.02467
420.15538	0.02431
418.09579	0.02399
416.03621	0.02376
413.97662	0.02367
411.91704	0.02367
409.85745	0.02359
407.79787	0.02322
405.73828	0.02252
403.67870	0.02168
401.61911	0.02102
399.55953	0.02062
