3997.65486	0.05353
3995.59527	0.05387
3993.53569	0.05421
3991.47610	0.05466
3989.41652	0.05489
3987.35693	0.05482
3985.29735	0.05482
3983.23776	0.05479
3981.17817	0.05428
3979.11859	0.05382
3977.05900	0.05402
3974.99942	0.05414
3972.93983	0.05374
3970.88025	0.05346
3968.82066	0.05303
3966.76108	0.05207
3964.70149	0.05176
3962.64191	0.05279
3960.58232	0.05390
3958.52274	0.05383
3956.46315	0.05302
3954.40357	0.05296
3952.34398	0.05387
3950.28440	0.05444
3948.22481	0.05371
3946.16523	0.05244
3944.10564	0.05241
3942.04606	0.05335
3939.98647	0.05374
3937.92689	0.05358
3935.86730	0.05312
3933.80772	0.05262
3931.74813	0.05264
3929.68855	0.05280
3927.62896	0.05308
3925.56937	0.05364
3923.50979	0.05378
3921.45020	0.05331
3919.39062	0.05280
3917.33103	0.05253
3915.27145	0.05268
3913.21186	0.05329
3911.15228	0.05388
3909.09269	0.05391
3907.03311	0.05344
3904.97352	0.05291
3902.91394	0.05267
3900.85435	0.05295
3898.79477	0.05347
3896.73518	0.05357
3894.67560	0.05324
3892.61601	0.05311
3890.55643	0.05305
3888.49684	0.05256
3886.43726	0.05215
3884.37767	0.05227
3882.31809	0.05192
3880.25850	0.05060
3878.19892	0.04960
3876.13933	0.04963
3874.07974	0.05011
3872.02016	0.05104
3869.96057	0.05215
3867.90099	0.05238
3865.84140	0.05189
3863.78182	0.05131
3861.72223	0.05076
3859.66265	0.05062
3857.60306	0.05092
3855.54348	0.05104
3853.48389	0.05075
3851.42431	0.05068
3849.36472	0.05115
3847.30514	0.05149
3845.24555	0.05148
3843.18597	0.05144
3841.12638	0.05108
3839.06680	0.05020
3837.00721	0.04973
3834.94763	0.05032
3832.88804	0.05135
3830.82846	0.05189
3828.76887	0.05170
3826.70929	0.05123
3824.64970	0.05060
3822.59012	0.04996
3820.53053	0.04986
3818.47094	0.05014
3816.41136	0.04997
3814.35177	0.04935
3812.29219	0.04918
3810.23260	0.04976
3808.17302	0.05068
3806.11343	0.05122
3804.05385	0.05109
3801.99426	0.05082
3799.93468	0.05057
3797.87509	0.05011
3795.81551	0.04968
3793.75592	0.04940
3791.69634	0.04934
3789.63675	0.04949
3787.57717	0.04947
3785.51758	0.04921
3783.45800	0.04919
3781.39841	0.04968
3779.33883	0.05014
3777.27924	0.05011
3775.21966	0.05028
3773.16007	0.05087
3771.10049	0.05088
3769.04090	0.05024
3766.98132	0.05006
3764.92173	0.05023
3762.86214	0.05018
3760.80256	0.05018
3758.74297	0.05004
3756.68339	0.04916
3754.62380	0.04804
3752.56422	0.04737
3750.50463	0.04737
3748.44505	0.04814
3746.38546	0.04883
3744.32588	0.04824
3742.26629	0.04670
3740.20671	0.04555
3738.14712	0.04564
3736.08754	0.04675
3734.02795	0.04794
3731.96837	0.04839
3729.90878	0.04827
3727.84920	0.04842
3725.78961	0.04849
3723.73003	0.04765
3721.67044	0.04667
3719.61086	0.04606
3717.55127	0.04567
3715.49169	0.04575
3713.43210	0.04617
3711.37251	0.04634
3709.31293	0.04636
3707.25334	0.04673
3705.19376	0.04751
3703.13417	0.04797
3701.07459	0.04754
3699.01500	0.04662
3696.95542	0.04590
3694.89583	0.04553
3692.83625	0.04556
3690.77666	0.04608
3688.71708	0.04670
3686.65749	0.04646
3684.59791	0.04581
3682.53832	0.04598
3680.47874	0.04687
3678.41915	0.04737
3676.35957	0.04658
3674.29998	0.04511
3672.24040	0.04494
3670.18081	0.04609
3668.12123	0.04669
3666.06164	0.04653
3664.00206	0.04647
3661.94247	0.04647
3659.88289	0.04628
3657.82330	0.04599
3655.76371	0.04587
3653.70413	0.04656
3651.64454	0.04779
3649.58496	0.04810
3647.52537	0.04746
3645.46579	0.04734
3643.40620	0.04768
3641.34662	0.04743
3639.28703	0.04659
3637.22745	0.04592
3635.16786	0.04550
3633.10828	0.04530
3631.04869	0.04553
3628.98911	0.04618
3626.92952	0.04690
3624.86994	0.04730
3622.81035	0.04761
3620.75077	0.04798
3618.69118	0.04801
3616.63160	0.04760
3614.57201	0.04749
3612.51243	0.04829
3610.45284	0.04929
3608.39326	0.04943
3606.33367	0.04886
3604.27408	0.04822
3602.21450	0.04825
3600.15491	0.04921
3598.09533	0.05034
3596.03574	0.05064
3593.97616	0.04990
3591.91657	0.04886
3589.85699	0.04885
3587.79740	0.04977
3585.73782	0.05042
3583.67823	0.05054
3581.61865	0.05053
3579.55906	0.05078
3577.49948	0.05158
3575.43989	0.05198
3573.38031	0.05158
3571.32072	0.05207
3569.26114	0.05373
3567.20155	0.05449
3565.14197	0.05405
3563.08238	0.05408
3561.02280	0.05447
3558.96321	0.05406
3556.90363	0.05312
3554.84404	0.05286
3552.78446	0.05343
3550.72487	0.05395
3548.66528	0.05430
3546.60570	0.05488
3544.54611	0.05536
3542.48653	0.05530
3540.42694	0.05510
3538.36736	0.05550
3536.30777	0.05643
3534.24819	0.05714
3532.18860	0.05690
3530.12902	0.05596
3528.06943	0.05560
3526.00985	0.05626
3523.95026	0.05727
3521.89068	0.05818
3519.83109	0.05889
3517.77151	0.05902
3515.71192	0.05841
3513.65234	0.05787
3511.59275	0.05812
3509.53317	0.05857
3507.47358	0.05900
3505.41400	0.06020
3503.35441	0.06131
3501.29483	0.06098
3499.23524	0.05999
3497.17565	0.05934
3495.11607	0.05916
3493.05648	0.05941
3490.99690	0.05962
3488.93731	0.05952
3486.87773	0.05942
3484.81814	0.05968
3482.75856	0.06009
3480.69897	0.06025
3478.63939	0.06055
3476.57980	0.06109
3474.52022	0.06118
3472.46063	0.06098
3470.40105	0.06138
3468.34146	0.06208
3466.28188	0.06234
3464.22229	0.06228
3462.16271	0.06181
3460.10312	0.06121
3458.04354	0.06170
3455.98395	0.06315
3453.92437	0.06393
3451.86478	0.06346
3449.80520	0.06284
3447.74561	0.06264
3445.68603	0.06246
3443.62644	0.06239
3441.56685	0.06289
3439.50727	0.06341
3437.44768	0.06322
3435.38810	0.06272
3433.32851	0.06252
3431.26893	0.06281
3429.20934	0.06362
3427.14976	0.06477
3425.09017	0.06567
3423.03059	0.06603
3420.97100	0.06606
3418.91142	0.06579
3416.85183	0.06529
3414.79225	0.06525
3412.73266	0.06600
3410.67308	0.06678
3408.61349	0.06708
3406.55391	0.06726
3404.49432	0.06748
3402.43474	0.06745
3400.37515	0.06737
3398.31557	0.06769
3396.25598	0.06825
3394.19640	0.06859
3392.13681	0.06880
3390.07723	0.06905
3388.01764	0.06939
3385.95805	0.06977
3383.89847	0.06986
3381.83888	0.06993
3379.77930	0.07053
3377.71971	0.07128
3375.66013	0.07154
3373.60054	0.07172
3371.54096	0.07218
3369.48137	0.07261
3367.42179	0.07285
3365.36220	0.07272
3363.30262	0.07267
3361.24303	0.07357
3359.18345	0.07495
3357.12386	0.07602
3355.06428	0.07712
3353.00469	0.07807
3350.94511	0.07846
3348.88552	0.07875
3346.82594	0.07927
3344.76635	0.08000
3342.70677	0.08098
3340.64718	0.08217
3338.58760	0.08382
3336.52801	0.08578
3334.46842	0.08761
3332.40884	0.08958
3330.34925	0.09144
3328.28967	0.09273
3326.23008	0.09412
3324.17050	0.09623
3322.11091	0.09863
3320.05133	0.10099
3317.99174	0.10352
3315.93216	0.10610
3313.87257	0.10857
3311.81299	0.11123
3309.75340	0.11438
3307.69382	0.11800
3305.63423	0.12166
3303.57465	0.12526
3301.51506	0.12852
3299.45548	0.13102
3297.39589	0.13380
3295.33631	0.13780
3293.27672	0.14185
3291.21714	0.14458
3289.15755	0.14645
3287.09797	0.14876
3285.03838	0.15161
3282.97880	0.15378
3280.91921	0.15483
3278.85962	0.15607
3276.80004	0.15823
3274.74045	0.16007
3272.68087	0.16034
3270.62128	0.15941
3268.56170	0.15828
3266.50211	0.15684
3264.44253	0.15462
3262.38294	0.15228
3260.32336	0.15037
3258.26377	0.14867
3256.20419	0.14694
3254.14460	0.14515
3252.08502	0.14339
3250.02543	0.14164
3247.96585	0.13982
3245.90626	0.13805
3243.84668	0.13626
3241.78709	0.13423
3239.72751	0.13204
3237.66792	0.13005
3235.60834	0.12879
3233.54875	0.12803
3231.48917	0.12698
3229.42958	0.12535
3227.36999	0.12373
3225.31041	0.12273
3223.25082	0.12180
3221.19124	0.12024
3219.13165	0.11851
3217.07207	0.11744
3215.01248	0.11669
3212.95290	0.11537
3210.89331	0.11372
3208.83373	0.11247
3206.77414	0.11177
3204.71456	0.11116
3202.65497	0.11042
3200.59539	0.10939
3198.53580	0.10770
3196.47622	0.10615
3194.41663	0.10545
3192.35705	0.10494
3190.29746	0.10413
3188.23788	0.10320
3186.17829	0.10217
3184.11871	0.10095
3182.05912	0.10001
3179.99954	0.09962
3177.93995	0.09899
3175.88037	0.09780
3173.82078	0.09670
3171.76119	0.09587
3169.70161	0.09512
3167.64202	0.09457
3165.58244	0.09408
3163.52285	0.09317
3161.46327	0.09165
3159.40368	0.09006
3157.34410	0.08953
3155.28451	0.08985
3153.22493	0.08957
3151.16534	0.08855
3149.10576	0.08750
3147.04617	0.08666
3144.98659	0.08588
3142.92700	0.08540
3140.86742	0.08534
3138.80783	0.08488
3136.74825	0.08376
3134.68866	0.08301
3132.62908	0.08307
3130.56949	0.08336
3128.50991	0.08355
3126.45032	0.08327
3124.39074	0.08244
3122.33115	0.08182
3120.27156	0.08183
3118.21198	0.08219
3116.15239	0.08233
3114.09281	0.08210
3112.03322	0.08196
3109.97364	0.08213
3107.91405	0.08224
3105.85447	0.08223
3103.79488	0.08222
3101.73530	0.08209
3099.67571	0.08183
3097.61613	0.08190
3095.55654	0.08258
3093.49696	0.08349
3091.43737	0.08401
3089.37779	0.08383
3087.31820	0.08336
3085.25862	0.08337
3083.19903	0.08360
3081.13945	0.08346
3079.07986	0.08360
3077.02028	0.08463
3074.96069	0.08573
3072.90111	0.08597
3070.84152	0.08545
3068.78194	0.08489
3066.72235	0.08494
3064.66276	0.08533
3062.60318	0.08515
3060.54359	0.08428
3058.48401	0.08380
3056.42442	0.08405
3054.36484	0.08412
3052.30525	0.08350
3050.24567	0.08265
3048.18608	0.08212
3046.12650	0.08162
3044.06691	0.08062
3042.00733	0.07945
3039.94774	0.07880
3037.88816	0.07859
3035.82857	0.07842
3033.76899	0.07804
3031.70940	0.07725
3029.64982	0.07643
3027.59023	0.07589
3025.53065	0.07538
3023.47106	0.07484
3021.41148	0.07439
3019.35189	0.07409
3017.29231	0.07388
3015.23272	0.07353
3013.17313	0.07332
3011.11355	0.07328
3009.05396	0.07320
3006.99438	0.07300
3004.93479	0.07258
3002.87521	0.07195
3000.81562	0.07133
2998.75604	0.07131
2996.69645	0.07193
2994.63687	0.07249
2992.57728	0.07278
2990.51770	0.07314
2988.45811	0.07374
2986.39853	0.07434
2984.33894	0.07483
2982.27936	0.07508
2980.21977	0.07508
2978.16019	0.07523
2976.10060	0.07571
2974.04102	0.07618
2971.98143	0.07637
2969.92185	0.07645
2967.86226	0.07676
2965.80268	0.07709
2963.74309	0.07695
2961.68351	0.07643
2959.62392	0.07594
2957.56433	0.07584
2955.50475	0.07576
2953.44516	0.07493
2951.38558	0.07405
2949.32599	0.07424
2947.26641	0.07500
2945.20682	0.07574
2943.14724	0.07640
2941.08765	0.07684
2939.02807	0.07765
2936.96848	0.07902
2934.90890	0.07996
2932.84931	0.08011
2930.78973	0.08047
2928.73014	0.08161
2926.67056	0.08242
2924.61097	0.08229
2922.55139	0.08208
2920.49180	0.08233
2918.43222	0.08248
2916.37263	0.08183
2914.31305	0.08049
2912.25346	0.07896
2910.19388	0.07740
2908.13429	0.07605
2906.07471	0.07515
2904.01512	0.07458
2901.95553	0.07419
2899.89595	0.07384
2897.83636	0.07343
2895.77678	0.07292
2893.71719	0.07241
2891.65761	0.07221
2889.59802	0.07229
2887.53844	0.07213
2885.47885	0.07169
2883.41927	0.07132
2881.35968	0.07112
2879.30010	0.07124
2877.24051	0.07169
2875.18093	0.07212
2873.12134	0.07230
2871.06176	0.07219
2869.00217	0.07199
2866.94259	0.07182
2864.88300	0.07141
2862.82342	0.07085
2860.76383	0.07057
2858.70425	0.07056
2856.64466	0.07065
2854.58508	0.07097
2852.52549	0.07158
2850.46590	0.07207
2848.40632	0.07147
2846.34673	0.06972
2844.28715	0.06822
2842.22756	0.06754
2840.16798	0.06706
2838.10839	0.06649
2836.04881	0.06584
2833.98922	0.06516
2831.92964	0.06476
2829.87005	0.06460
2827.81047	0.06442
2825.75088	0.06436
2823.69130	0.06446
2821.63171	0.06439
2819.57213	0.06427
2817.51254	0.06407
2815.45296	0.06350
2813.39337	0.06311
2811.33379	0.06318
2809.27420	0.06331
2807.21462	0.06339
2805.15503	0.06342
2803.09545	0.06333
2801.03586	0.06326
2798.97628	0.06333
2796.91669	0.06341
2794.85710	0.06323
2792.79752	0.06289
2790.73793	0.06279
2788.67835	0.06294
2786.61876	0.06290
2784.55918	0.06264
2782.49959	0.06257
2780.44001	0.06260
2778.38042	0.06249
2776.32084	0.06222
2774.26125	0.06180
2772.20167	0.06151
2770.14208	0.06143
2768.08250	0.06133
2766.02291	0.06112
2763.96333	0.06089
2761.90374	0.06072
2759.84416	0.06054
2757.78457	0.06052
2755.72499	0.06060
2753.66540	0.06020
2751.60582	0.05959
2749.54623	0.05951
2747.48665	0.05983
2745.42706	0.05987
2743.36747	0.05956
2741.30789	0.05930
2739.24830	0.05909
2737.18872	0.05882
2735.12913	0.05856
2733.06955	0.05839
2731.00996	0.05843
2728.95038	0.05848
2726.89079	0.05819
2724.83121	0.05802
2722.77162	0.05831
2720.71204	0.05838
2718.65245	0.05798
2716.59287	0.05753
2714.53328	0.05735
2712.47370	0.05760
2710.41411	0.05795
2708.35453	0.05786
2706.29494	0.05725
2704.23536	0.05647
2702.17577	0.05611
2700.11619	0.05624
2698.05660	0.05626
2695.99702	0.05607
2693.93743	0.05611
2691.87785	0.05638
2689.81826	0.05652
2687.75867	0.05638
2685.69909	0.05622
2683.63950	0.05630
2681.57992	0.05629
2679.52033	0.05596
2677.46075	0.05575
2675.40116	0.05580
2673.34158	0.05582
2671.28199	0.05542
2669.22241	0.05482
2667.16282	0.05462
2665.10324	0.05470
2663.04365	0.05476
2660.98407	0.05499
2658.92448	0.05532
2656.86490	0.05536
2654.80531	0.05523
2652.74573	0.05527
2650.68614	0.05520
2648.62656	0.05475
2646.56697	0.05406
2644.50739	0.05372
2642.44780	0.05368
2640.38822	0.05338
2638.32863	0.05317
2636.26904	0.05327
2634.20946	0.05326
2632.14987	0.05313
2630.09029	0.05313
2628.03070	0.05312
2625.97112	0.05294
2623.91153	0.05267
2621.85195	0.05239
2619.79236	0.05233
2617.73278	0.05237
2615.67319	0.05217
2613.61361	0.05187
2611.55402	0.05155
2609.49444	0.05132
2607.43485	0.05143
2605.37527	0.05164
2603.31568	0.05182
2601.25610	0.05228
2599.19651	0.05263
2597.13693	0.05223
2595.07734	0.05128
2593.01776	0.05057
2590.95817	0.05042
2588.89859	0.05071
2586.83900	0.05094
2584.77942	0.05070
2582.71983	0.05010
2580.66024	0.04948
2578.60066	0.04898
2576.54107	0.04856
2574.48149	0.04846
2572.42190	0.04857
2570.36232	0.04865
2568.30273	0.04918
2566.24315	0.04986
2564.18356	0.04981
2562.12398	0.04924
2560.06439	0.04878
2558.00481	0.04864
2555.94522	0.04875
2553.88564	0.04901
2551.82605	0.04936
2549.76647	0.04932
2547.70688	0.04862
2545.64730	0.04801
2543.58771	0.04784
2541.52813	0.04742
2539.46854	0.04708
2537.40896	0.04741
2535.34937	0.04785
2533.28979	0.04775
2531.23020	0.04693
2529.17062	0.04612
2527.11103	0.04614
2525.05144	0.04665
2522.99186	0.04705
2520.93227	0.04721
2518.87269	0.04729
2516.81310	0.04734
2514.75352	0.04704
2512.69393	0.04648
2510.63435	0.04598
2508.57476	0.04537
2506.51518	0.04514
2504.45559	0.04556
2502.39601	0.04632
2500.33642	0.04682
2498.27684	0.04633
2496.21725	0.04531
2494.15767	0.04517
2492.09808	0.04618
2490.03850	0.04669
2487.97891	0.04613
2485.91933	0.04594
2483.85974	0.04657
2481.80016	0.04695
2479.74057	0.04669
2477.68099	0.04638
2475.62140	0.04569
2473.56181	0.04456
2471.50223	0.04386
2469.44264	0.04389
2467.38306	0.04457
2465.32347	0.04545
2463.26389	0.04564
2461.20430	0.04525
2459.14472	0.04497
2457.08513	0.04470
2455.02555	0.04444
2452.96596	0.04466
2450.90638	0.04513
2448.84679	0.04525
2446.78721	0.04504
2444.72762	0.04480
2442.66804	0.04453
2440.60845	0.04409
2438.54887	0.04374
2436.48928	0.04388
2434.42970	0.04450
2432.37011	0.04507
2430.31053	0.04461
2428.25094	0.04308
2426.19136	0.04230
2424.13177	0.04292
2422.07219	0.04301
2420.01260	0.04249
2417.95301	0.04282
2415.89343	0.04342
2413.83384	0.04344
2411.77426	0.04319
2409.71467	0.04302
2407.65509	0.04292
2405.59550	0.04313
2403.53592	0.04351
2401.47633	0.04370
2399.41675	0.04382
2397.35716	0.04381
2395.29758	0.04351
2393.23799	0.04307
2391.17841	0.04298
2389.11882	0.04303
2387.05924	0.04280
2384.99965	0.04249
2382.94007	0.04210
2380.88048	0.04166
2378.82090	0.04168
2376.76131	0.04185
2374.70173	0.04248
2372.64214	0.04207
2370.58256	0.04077
2368.52297	0.04108
2366.46338	0.04101
2364.40380	0.04161
2362.34421	0.04244
2360.28463	0.04173
2358.22504	0.04223
2356.16546	0.04221
2354.10587	0.04221
2352.04629	0.04224
2349.98670	0.03959
2347.92712	0.04053
2345.86753	0.04318
2343.80795	0.04324
2341.74836	0.04401
2339.68878	0.04292
2337.62919	0.04282
2335.56961	0.04388
2333.51002	0.04263
2331.45044	0.04253
2329.39085	0.04155
2327.33127	0.04298
2325.27168	0.04346
2323.21210	0.04381
2321.15251	0.04291
2319.09293	0.04187
2317.03334	0.04159
2314.97376	0.04151
2312.91417	0.04173
2310.85458	0.04198
2308.79500	0.04178
2306.73541	0.04158
2304.67583	0.04131
2302.61624	0.04081
2300.55666	0.04033
2298.49707	0.04040
2296.43749	0.04060
2294.37790	0.04098
2292.31832	0.04141
2290.25873	0.04130
2288.19915	0.04081
2286.13956	0.04094
2284.07998	0.04087
2282.02039	0.03991
2279.96081	0.03886
2277.90122	0.03841
2275.84164	0.03860
2273.78205	0.03908
2271.72247	0.03961
2269.66288	0.03981
2267.60330	0.03926
2265.54371	0.03813
2263.48413	0.03750
2261.42454	0.03769
2259.36495	0.03826
2257.30537	0.03837
2255.24578	0.03745
2253.18620	0.03649
2251.12661	0.03687
2249.06703	0.03802
2247.00744	0.03817
2244.94786	0.03678
2242.88827	0.03548
2240.82869	0.03508
2238.76910	0.03468
2236.70952	0.03417
2234.64993	0.03390
2232.59035	0.03341
2230.53076	0.03260
2228.47118	0.03248
2226.41159	0.03348
2224.35201	0.03458
2222.29242	0.03480
2220.23284	0.03475
2218.17325	0.03456
2216.11367	0.03322
2214.05408	0.03190
2211.99450	0.03207
2209.93491	0.03304
2207.87533	0.03383
2205.81574	0.03442
2203.75615	0.03555
2201.69657	0.03608
2199.63698	0.03450
2197.57740	0.03311
2195.51781	0.03362
2193.45823	0.03448
2191.39864	0.03486
2189.33906	0.03441
2187.27947	0.03303
2185.21989	0.03256
2183.16030	0.03320
2181.10072	0.03283
2179.04113	0.03165
2176.98155	0.03098
2174.92196	0.03064
2172.86238	0.02999
2170.80279	0.02963
2168.74321	0.03023
2166.68362	0.03083
2164.62404	0.03144
2162.56445	0.03204
2160.50487	0.02977
2158.44528	0.02571
2156.38570	0.02469
2154.32611	0.02651
2152.26652	0.02812
2150.20694	0.02845
2148.14735	0.02839
2146.08777	0.02816
2144.02818	0.02794
2141.96860	0.02851
2139.90901	0.02912
2137.84943	0.02930
2135.78984	0.02977
2133.73026	0.03023
2131.67067	0.03034
2129.61109	0.03081
2127.55150	0.03151
2125.49192	0.03176
2123.43233	0.03221
2121.37275	0.03319
2119.31316	0.03386
2117.25358	0.03388
2115.19399	0.03369
2113.13441	0.03343
2111.07482	0.03285
2109.01524	0.03210
2106.95565	0.03176
2104.89607	0.03170
2102.83648	0.03133
2100.77690	0.03109
2098.71731	0.03151
2096.65772	0.03158
2094.59814	0.03105
2092.53855	0.03091
2090.47897	0.03126
2088.41938	0.03132
2086.35980	0.03103
2084.30021	0.03069
2082.24063	0.03013
2080.18104	0.02966
2078.12146	0.03007
2076.06187	0.03102
2074.00229	0.03136
2071.94270	0.03126
2069.88312	0.03138
2067.82353	0.03156
2065.76395	0.03176
2063.70436	0.03178
2061.64478	0.03144
2059.58519	0.03137
2057.52561	0.03144
2055.46602	0.03086
2053.40644	0.03013
2051.34685	0.02980
2049.28727	0.02953
2047.22768	0.02899
2045.16810	0.02818
2043.10851	0.02787
2041.04892	0.02823
2038.98934	0.02771
2036.92975	0.02572
2034.87017	0.02423
2032.81058	0.02490
2030.75100	0.02675
2028.69141	0.02807
2026.63183	0.02843
2024.57224	0.02790
2022.51266	0.02680
2020.45307	0.02643
2018.39349	0.02705
2016.33390	0.02756
2014.27432	0.02786
2012.21473	0.02764
2010.15515	0.02669
2008.09556	0.02613
2006.03598	0.02596
2003.97639	0.02543
2001.91681	0.02496
1999.85722	0.02486
1997.79764	0.02489
1995.73805	0.02516
1993.67847	0.02505
1991.61888	0.02397
1989.55929	0.02331
1987.49971	0.02394
1985.44012	0.02487
1983.38054	0.02558
1981.32095	0.02595
1979.26137	0.02602
1977.20178	0.02559
1975.14220	0.02428
1973.08261	0.02295
1971.02303	0.02273
1968.96344	0.02320
1966.90386	0.02363
1964.84427	0.02459
1962.78469	0.02563
1960.72510	0.02540
1958.66552	0.02445
1956.60593	0.02416
1954.54635	0.02447
1952.48676	0.02467
1950.42718	0.02482
1948.36759	0.02511
1946.30801	0.02544
1944.24842	0.02546
1942.18884	0.02501
1940.12925	0.02450
1938.06967	0.02416
1936.01008	0.02379
1933.95049	0.02352
1931.89091	0.02347
1929.83132	0.02368
1927.77174	0.02422
1925.71215	0.02445
1923.65257	0.02439
1921.59298	0.02456
1919.53340	0.02474
1917.47381	0.02465
1915.41423	0.02438
1913.35464	0.02444
1911.29506	0.02486
1909.23547	0.02495
1907.17589	0.02454
1905.11630	0.02417
1903.05672	0.02420
1900.99713	0.02452
1898.93755	0.02480
1896.87796	0.02469
1894.81838	0.02416
1892.75879	0.02370
1890.69921	0.02363
1888.63962	0.02395
1886.58004	0.02444
1884.52045	0.02456
1882.46086	0.02427
1880.40128	0.02406
1878.34169	0.02405
1876.28211	0.02426
1874.22252	0.02453
1872.16294	0.02428
1870.10335	0.02349
1868.04377	0.02289
1865.98418	0.02285
1863.92460	0.02288
1861.86501	0.02264
1859.80543	0.02252
1857.74584	0.02267
1855.68626	0.02268
1853.62667	0.02246
1851.56709	0.02245
1849.50750	0.02257
1847.44792	0.02235
1845.38833	0.02190
1843.32875	0.02155
1841.26916	0.02143
1839.20958	0.02143
1837.14999	0.02142
1835.09041	0.02133
1833.03082	0.02111
1830.97124	0.02090
1828.91165	0.02091
1826.85206	0.02111
1824.79248	0.02123
1822.73289	0.02097
1820.67331	0.02042
1818.61372	0.01992
1816.55414	0.01983
1814.49455	0.02001
1812.43497	0.02001
1810.37538	0.01982
1808.31580	0.01969
1806.25621	0.01966
1804.19663	0.01967
1802.13704	0.01960
1800.07746	0.01945
1798.01787	0.01941
1795.95829	0.01965
1793.89870	0.01987
1791.83912	0.01967
1789.77953	0.01910
1787.71995	0.01852
1785.66036	0.01820
1783.60078	0.01814
1781.54119	0.01813
1779.48161	0.01804
1777.42202	0.01791
1775.36243	0.01791
1773.30285	0.01795
1771.24326	0.01783
1769.18368	0.01757
1767.12409	0.01728
1765.06451	0.01693
1763.00492	0.01658
1760.94534	0.01636
1758.88575	0.01629
1756.82617	0.01623
1754.76658	0.01614
1752.70700	0.01604
1750.64741	0.01588
1748.58783	0.01564
1746.52824	0.01540
1744.46866	0.01525
1742.40907	0.01513
1740.34949	0.01488
1738.28990	0.01452
1736.23032	0.01434
1734.17073	0.01446
1732.11115	0.01450
1730.05156	0.01425
1727.99198	0.01392
1725.93239	0.01376
1723.87281	0.01383
1721.81322	0.01402
1719.75363	0.01437
1717.69405	0.01510
1715.63446	0.01594
1713.57488	0.01674
1711.51529	0.01806
1709.45571	0.02039
1707.39612	0.02399
1705.33654	0.02895
1703.27695	0.03461
1701.21737	0.04014
1699.15778	0.04422
1697.09820	0.04571
1695.03861	0.04564
1692.97903	0.04539
1690.91944	0.04546
1688.85986	0.04595
1686.80027	0.04704
1684.74069	0.04896
1682.68110	0.05112
1680.62152	0.05284
1678.56193	0.05455
1676.50235	0.05665
1674.44276	0.05898
1672.38318	0.06133
1670.32359	0.06402
1668.26401	0.06697
1666.20442	0.06962
1664.14483	0.07227
1662.08525	0.07541
1660.02566	0.07868
1657.96608	0.08171
1655.90649	0.08477
1653.84691	0.08851
1651.78732	0.09248
1649.72774	0.09543
1647.66815	0.09811
1645.60857	0.10139
1643.54898	0.10482
1641.48940	0.10825
1639.42981	0.11199
1637.37023	0.11647
1635.31064	0.12182
1633.25106	0.12695
1631.19147	0.13129
1629.13189	0.13557
1627.07230	0.14001
1625.01272	0.14432
1622.95313	0.14827
1620.89355	0.15121
1618.83396	0.15267
1616.77438	0.15272
1614.71479	0.15144
1612.65520	0.14910
1610.59562	0.14587
1608.53603	0.14167
1606.47645	0.13650
1604.41686	0.13060
1602.35728	0.12439
1600.29769	0.11845
1598.23811	0.11312
1596.17852	0.10822
1594.11894	0.10346
1592.05935	0.09882
1589.99977	0.09439
1587.94018	0.09031
1585.88060	0.08677
1583.82101	0.08381
1581.76143	0.08152
1579.70184	0.07993
1577.64226	0.07879
1575.58267	0.07787
1573.52309	0.07732
1571.46350	0.07744
1569.40392	0.07833
1567.34433	0.07970
1565.28475	0.08121
1563.22516	0.08279
1561.16558	0.08480
1559.10599	0.08766
1557.04640	0.09058
1554.98682	0.09273
1552.92723	0.09470
1550.86765	0.09696
1548.80806	0.09943
1546.74848	0.10194
1544.68889	0.10456
1542.62931	0.10743
1540.56972	0.11063
1538.51014	0.11366
1536.45055	0.11595
1534.39097	0.11818
1532.33138	0.12080
1530.27180	0.12327
1528.21221	0.12553
1526.15263	0.12789
1524.09304	0.13039
1522.03346	0.13322
1519.97387	0.13649
1517.91429	0.13987
1515.85470	0.14299
1513.79512	0.14525
1511.73553	0.14632
1509.67595	0.14641
1507.61636	0.14571
1505.55677	0.14419
1503.49719	0.14209
1501.43760	0.13974
1499.37802	0.13708
1497.31843	0.13394
1495.25885	0.13050
1493.19926	0.12706
1491.13968	0.12334
1489.08009	0.11915
1487.02051	0.11493
1484.96092	0.11093
1482.90134	0.10716
1480.84175	0.10372
1478.78217	0.10065
1476.72258	0.09792
1474.66300	0.09546
1472.60341	0.09318
1470.54383	0.09106
1468.48424	0.08932
1466.42466	0.08797
1464.36507	0.08688
1462.30549	0.08610
1460.24590	0.08582
1458.18632	0.08632
1456.12673	0.08780
1454.06715	0.08992
1452.00756	0.09239
1449.94797	0.09512
1447.88839	0.09776
1445.82880	0.09974
1443.76922	0.10092
1441.70963	0.10162
1439.65005	0.10198
1437.59046	0.10164
1435.53088	0.10029
1433.47129	0.09814
1431.41171	0.09551
1429.35212	0.09273
1427.29254	0.09032
1425.23295	0.08847
1423.17337	0.08704
1421.11378	0.08600
1419.05420	0.08525
1416.99461	0.08471
1414.93503	0.08448
1412.87544	0.08449
1410.81586	0.08460
1408.75627	0.08468
1406.69669	0.08471
1404.63710	0.08457
1402.57752	0.08412
1400.51793	0.08346
1398.45834	0.08283
1396.39876	0.08224
1394.33917	0.08157
1392.27959	0.08091
1390.22000	0.08038
1388.16042	0.07993
1386.10083	0.07953
1384.04125	0.07916
1381.98166	0.07879
1379.92208	0.07842
1377.86249	0.07809
1375.80291	0.07790
1373.74332	0.07793
1371.68374	0.07806
1369.62415	0.07815
1367.56457	0.07814
1365.50498	0.07774
1363.44540	0.07678
1361.38581	0.07547
1359.32623	0.07411
1357.26664	0.07290
1355.20706	0.07190
1353.14747	0.07106
1351.08789	0.07036
1349.02830	0.06984
1346.96872	0.06951
1344.90913	0.06936
1342.84954	0.06938
1340.78996	0.06941
1338.73037	0.06934
1336.67079	0.06926
1334.61120	0.06918
1332.55162	0.06900
1330.49203	0.06865
1328.43245	0.06819
1326.37286	0.06766
1324.31328	0.06702
1322.25369	0.06633
1320.19411	0.06573
1318.13452	0.06530
1316.07494	0.06498
1314.01535	0.06465
1311.95577	0.06425
1309.89618	0.06387
1307.83660	0.06357
1305.77701	0.06330
1303.71743	0.06304
1301.65784	0.06274
1299.59826	0.06229
1297.53867	0.06176
1295.47909	0.06133
1293.41950	0.06096
1291.35991	0.06064
1289.30033	0.06043
1287.24074	0.06024
1285.18116	0.06004
1283.12157	0.05997
1281.06199	0.06017
1279.00240	0.06071
1276.94282	0.06157
1274.88323	0.06261
1272.82365	0.06386
1270.76406	0.06533
1268.70448	0.06678
1266.64489	0.06817
1264.58531	0.06943
1262.52572	0.07038
1260.46614	0.07099
1258.40655	0.07128
1256.34697	0.07125
1254.28738	0.07118
1252.22780	0.07134
1250.16821	0.07160
1248.10863	0.07190
1246.04904	0.07238
1243.98946	0.07310
1241.92987	0.07402
1239.87029	0.07519
1237.81070	0.07667
1235.75111	0.07832
1233.69153	0.07989
1231.63194	0.08117
1229.57236	0.08206
1227.51277	0.08256
1225.45319	0.08273
1223.39360	0.08257
1221.33402	0.08218
1219.27443	0.08161
1217.21485	0.08083
1215.15526	0.07982
1213.09568	0.07860
1211.03609	0.07712
1208.97651	0.07538
1206.91692	0.07352
1204.85734	0.07161
1202.79775	0.06970
1200.73817	0.06790
1198.67858	0.06625
1196.61900	0.06468
1194.55941	0.06327
1192.49983	0.06206
1190.44024	0.06093
1188.38066	0.05988
1186.32107	0.05897
1184.26149	0.05826
1182.20190	0.05789
1180.14231	0.05778
1178.08273	0.05792
1176.02314	0.05838
1173.96356	0.05915
1171.90397	0.06001
1169.84439	0.06061
1167.78480	0.06090
1165.72522	0.06123
1163.66563	0.06147
1161.60605	0.06128
1159.54646	0.06081
1157.48688	0.06035
1155.42729	0.05986
1153.36771	0.05914
1151.30812	0.05820
1149.24854	0.05722
1147.18895	0.05623
1145.12937	0.05522
1143.06978	0.05428
1141.01020	0.05340
1138.95061	0.05254
1136.89103	0.05178
1134.83144	0.05119
1132.77186	0.05066
1130.71227	0.05011
1128.65268	0.04967
1126.59310	0.04928
1124.53351	0.04881
1122.47393	0.04844
1120.41434	0.04823
1118.35476	0.04791
1116.29517	0.04745
1114.23559	0.04713
1112.17600	0.04698
1110.11642	0.04690
1108.05683	0.04682
1105.99725	0.04672
1103.93766	0.04649
1101.87808	0.04609
1099.81849	0.04575
1097.75891	0.04564
1095.69932	0.04553
1093.63974	0.04531
1091.58015	0.04508
1089.52057	0.04503
1087.46098	0.04527
1085.40140	0.04587
1083.34181	0.04688
1081.28223	0.04805
1079.22264	0.04907
1077.16306	0.04993
1075.10347	0.05081
1073.04388	0.05175
1070.98430	0.05258
1068.92471	0.05316
1066.86513	0.05352
1064.80554	0.05371
1062.74596	0.05376
1060.68637	0.05367
1058.62679	0.05351
1056.56720	0.05325
1054.50762	0.05278
1052.44803	0.05222
1050.38845	0.05178
1048.32886	0.05147
1046.26928	0.05123
1044.20969	0.05098
1042.15011	0.05061
1040.09052	0.05018
1038.03094	0.04973
1035.97135	0.04919
1033.91177	0.04850
1031.85218	0.04773
1029.79260	0.04703
1027.73301	0.04638
1025.67343	0.04575
1023.61384	0.04517
1021.55425	0.04466
1019.49467	0.04436
1017.43508	0.04424
1015.37550	0.04420
1013.31591	0.04426
1011.25633	0.04428
1009.19674	0.04426
1007.13716	0.04441
1005.07757	0.04474
1003.01799	0.04496
1000.95840	0.04513
998.89882	0.04551
996.83923	0.04582
994.77965	0.04573
992.72006	0.04521
990.66048	0.04435
988.60089	0.04331
986.54131	0.04248
984.48172	0.04209
982.42214	0.04205
980.36255	0.04230
978.30297	0.04280
976.24338	0.04335
974.18380	0.04359
972.12421	0.04333
970.06463	0.04263
968.00504	0.04165
965.94545	0.04081
963.88587	0.04025
961.82628	0.03972
959.76670	0.03915
957.70711	0.03864
955.64753	0.03815
953.58794	0.03771
951.52836	0.03736
949.46877	0.03710
947.40919	0.03686
945.34960	0.03661
943.29002	0.03640
941.23043	0.03611
939.17085	0.03581
937.11126	0.03574
935.05168	0.03586
932.99209	0.03596
930.93251	0.03607
928.87292	0.03613
926.81334	0.03589
924.75375	0.03541
922.69417	0.03500
920.63458	0.03465
918.57500	0.03429
916.51541	0.03389
914.45582	0.03344
912.39624	0.03304
910.33665	0.03267
908.27707	0.03222
906.21748	0.03177
904.15790	0.03155
902.09831	0.03166
900.03873	0.03175
897.97914	0.03160
895.91956	0.03138
893.85997	0.03113
891.80039	0.03086
889.74080	0.03065
887.68122	0.03047
885.62163	0.03045
883.56205	0.03047
881.50246	0.03024
879.44288	0.02985
877.38329	0.02962
875.32371	0.02950
873.26412	0.02938
871.20454	0.02915
869.14495	0.02876
867.08537	0.02836
865.02578	0.02809
862.96620	0.02789
860.90661	0.02783
858.84702	0.02801
856.78744	0.02838
854.72785	0.02876
852.66827	0.02909
850.60868	0.02927
848.54910	0.02922
846.48951	0.02903
844.42993	0.02876
842.37034	0.02859
840.31076	0.02864
838.25117	0.02868
836.19159	0.02864
834.13200	0.02855
832.07242	0.02859
830.01283	0.02882
827.95325	0.02902
825.89366	0.02908
823.83408	0.02904
821.77449	0.02897
819.71491	0.02877
817.65532	0.02835
815.59574	0.02795
813.53615	0.02785
811.47657	0.02789
809.41698	0.02789
807.35740	0.02787
805.29781	0.02766
803.23822	0.02728
801.17864	0.02709
799.11905	0.02716
797.05947	0.02732
794.99988	0.02738
792.94030	0.02730
790.88071	0.02719
788.82113	0.02717
786.76154	0.02728
784.70196	0.02746
782.64237	0.02770
780.58279	0.02795
778.52320	0.02827
776.46362	0.02862
774.40403	0.02881
772.34445	0.02896
770.28486	0.02932
768.22528	0.02968
766.16569	0.02983
764.10611	0.02985
762.04652	0.02982
759.98694	0.02984
757.92735	0.02999
755.86777	0.03015
753.80818	0.03028
751.74859	0.03047
749.68901	0.03081
747.62942	0.03131
745.56984	0.03183
743.51025	0.03233
741.45067	0.03297
739.39108	0.03371
737.33150	0.03445
735.27191	0.03511
733.21233	0.03579
731.15274	0.03663
729.09316	0.03752
727.03357	0.03836
724.97399	0.03905
722.91440	0.03970
720.85482	0.04053
718.79523	0.04104
716.73565	0.04154
714.67606	0.04189
712.61648	0.04214
710.55689	0.04230
708.49731	0.04254
706.43772	0.04298
704.37814	0.04357
702.31855	0.04430
700.25897	0.04505
698.19938	0.04567
696.13979	0.04609
694.08021	0.04624
692.02062	0.04618
689.96104	0.04615
687.90145	0.04620
685.84187	0.04627
683.78228	0.04640
681.72270	0.04657
679.66311	0.04664
677.60353	0.04656
675.54394	0.04647
673.48436	0.04642
671.42477	0.04524
669.36519	0.04366
667.30560	0.04757
665.24602	0.04507
663.18643	0.04536
661.12685	0.04568
659.06726	0.04586
657.00768	0.04618
654.94809	0.04654
652.88851	0.04679
650.82892	0.04687
648.76934	0.04713
646.70975	0.04764
644.65016	0.04817
642.59058	0.04833
640.53099	0.04835
638.47141	0.04837
636.41182	0.04831
634.35224	0.04839
632.29265	0.04867
630.23307	0.04890
628.17348	0.04897
626.11390	0.04903
624.05431	0.04915
621.99473	0.04932
619.93514	0.04943
617.87556	0.04930
615.81597	0.04908
613.75639	0.04901
611.69680	0.04898
609.63722	0.04890
607.57763	0.04856
605.51805	0.04793
603.45846	0.04735
601.39888	0.04688
599.33929	0.04635
597.27971	0.04584
595.22012	0.04564
593.16054	0.04540
591.10095	0.04476
589.04136	0.04422
586.98178	0.04412
584.92219	0.04398
582.86261	0.04334
580.80302	0.04257
578.74344	0.04212
576.68385	0.04189
574.62427	0.04174
572.56468	0.04165
570.50510	0.04149
568.44551	0.04127
566.38593	0.04128
564.32634	0.04181
562.26676	0.04301
560.20717	0.04459
558.14759	0.04616
556.08800	0.04760
554.02842	0.04877
551.96883	0.04957
549.90925	0.05008
547.84966	0.05012
545.79008	0.04962
543.73049	0.04887
541.67091	0.04835
539.61132	0.04821
537.55173	0.04796
535.49215	0.04746
533.43256	0.04692
531.37298	0.04623
529.31339	0.04548
527.25381	0.04491
525.19422	0.04448
523.13464	0.04412
521.07505	0.04377
519.01547	0.04326
516.95588	0.04254
514.89630	0.04194
512.83671	0.04161
510.77713	0.04140
508.71754	0.04109
506.65796	0.04048
504.59837	0.03988
502.53879	0.03968
500.47920	0.03943
498.41962	0.03890
496.36003	0.03850
494.30045	0.03838
492.24086	0.03837
490.18128	0.03831
488.12169	0.03804
486.06211	0.03765
484.00252	0.03739
481.94293	0.03722
479.88335	0.03698
477.82376	0.03660
475.76418	0.03610
473.70459	0.03552
471.64501	0.03491
469.58542	0.03441
467.52584	0.03413
465.46625	0.03385
463.40667	0.03346
461.34708	0.03334
459.28750	0.03361
457.22791	0.03367
455.16833	0.03312
453.10874	0.03238
451.04916	0.03181
448.98957	0.03159
446.92999	0.03161
444.87040	0.03182
442.81082	0.03203
440.75123	0.03164
438.69165	0.03081
436.63206	0.03066
434.57248	0.03130
432.51289	0.03197
430.45330	0.03258
428.39372	0.03295
426.33413	0.03287
424.27455	0.03261
422.21496	0.03242
420.15538	0.03240
418.09579	0.03240
416.03621	0.03179
413.97662	0.03062
411.91704	0.02953
409.85745	0.02876
407.79787	0.02813
405.73828	0.02734
403.67870	0.02648
401.61911	0.02612
399.55953	0.02619
