3998.68465	0.06245
3997.65486	0.06215
3996.62506	0.06213
3995.59527	0.06206
3994.56548	0.06187
3993.53569	0.06179
3992.50589	0.06183
3991.47610	0.06185
3990.44631	0.06147
3989.41652	0.06113
3988.38672	0.06135
3987.35693	0.06148
3986.32714	0.06120
3985.29735	0.06073
3984.26755	0.06016
3983.23776	0.06013
3982.20797	0.06066
3981.17817	0.06106
3980.14838	0.06093
3979.11859	0.06005
3978.08880	0.05876
3977.05900	0.05778
3976.02921	0.05775
3974.99942	0.05871
3973.96963	0.05963
3972.93983	0.06004
3971.91004	0.06039
3970.88025	0.06072
3969.85046	0.06102
3968.82066	0.06139
3967.79087	0.06128
3966.76108	0.06052
3965.73129	0.06004
3964.70149	0.06019
3963.67170	0.06020
3962.64191	0.05987
3961.61212	0.05981
3960.58232	0.05987
3959.55253	0.05972
3958.52274	0.05972
3957.49295	0.05979
3956.46315	0.05979
3955.43336	0.05996
3954.40357	0.06034
3953.37377	0.06083
3952.34398	0.06084
3951.31419	0.06004
3950.28440	0.05930
3949.25460	0.05924
3948.22481	0.05943
3947.19502	0.05950
3946.16523	0.05944
3945.13543	0.05934
3944.10564	0.05940
3943.07585	0.05952
3942.04606	0.05963
3941.01626	0.05981
3939.98647	0.05977
3938.95668	0.05919
3937.92689	0.05857
3936.89709	0.05884
3935.86730	0.05990
3934.83751	0.06046
3933.80772	0.05995
3932.77792	0.05911
3931.74813	0.05865
3930.71834	0.05866
3929.68855	0.05899
3928.65875	0.05934
3927.62896	0.05943
3926.59917	0.05931
3925.56937	0.05930
3924.53958	0.05930
3923.50979	0.05906
3922.48000	0.05897
3921.45020	0.05944
3920.42041	0.06003
3919.39062	0.05991
3918.36083	0.05894
3917.33103	0.05825
3916.30124	0.05899
3915.27145	0.06038
3914.24166	0.06084
3913.21186	0.06034
3912.18207	0.05971
3911.15228	0.05943
3910.12249	0.05934
3909.09269	0.05897
3908.06290	0.05828
3907.03311	0.05785
3906.00332	0.05814
3904.97352	0.05870
3903.94373	0.05860
3902.91394	0.05777
3901.88415	0.05709
3900.85435	0.05702
3899.82456	0.05729
3898.79477	0.05761
3897.76497	0.05793
3896.73518	0.05836
3895.70539	0.05899
3894.67560	0.05954
3893.64580	0.05957
3892.61601	0.05898
3891.58622	0.05826
3890.55643	0.05789
3889.52663	0.05787
3888.49684	0.05799
3887.46705	0.05823
3886.43726	0.05870
3885.40746	0.05917
3884.37767	0.05914
3883.34788	0.05849
3882.31809	0.05756
3881.28829	0.05681
3880.25850	0.05658
3879.22871	0.05705
3878.19892	0.05781
3877.16912	0.05845
3876.13933	0.05890
3875.10954	0.05887
3874.07974	0.05837
3873.04995	0.05801
3872.02016	0.05798
3870.99037	0.05788
3869.96057	0.05753
3868.93078	0.05730
3867.90099	0.05748
3866.87120	0.05809
3865.84140	0.05883
3864.81161	0.05930
3863.78182	0.05917
3862.75203	0.05846
3861.72223	0.05774
3860.69244	0.05758
3859.66265	0.05793
3858.63286	0.05826
3857.60306	0.05816
3856.57327	0.05770
3855.54348	0.05705
3854.51369	0.05620
3853.48389	0.05543
3852.45410	0.05533
3851.42431	0.05596
3850.39452	0.05669
3849.36472	0.05697
3848.33493	0.05685
3847.30514	0.05683
3846.27534	0.05719
3845.24555	0.05772
3844.21576	0.05799
3843.18597	0.05776
3842.15617	0.05719
3841.12638	0.05663
3840.09659	0.05634
3839.06680	0.05643
3838.03700	0.05672
3837.00721	0.05678
3835.97742	0.05658
3834.94763	0.05665
3833.91783	0.05715
3832.88804	0.05754
3831.85825	0.05740
3830.82846	0.05686
3829.79866	0.05627
3828.76887	0.05583
3827.73908	0.05571
3826.70929	0.05590
3825.67949	0.05615
3824.64970	0.05629
3823.61991	0.05638
3822.59012	0.05659
3821.56032	0.05698
3820.53053	0.05725
3819.50074	0.05716
3818.47094	0.05700
3817.44115	0.05713
3816.41136	0.05752
3815.38157	0.05783
3814.35177	0.05767
3813.32198	0.05693
3812.29219	0.05593
3811.26240	0.05514
3810.23260	0.05465
3809.20281	0.05428
3808.17302	0.05416
3807.14323	0.05464
3806.11343	0.05556
3805.08364	0.05618
3804.05385	0.05611
3803.02406	0.05547
3801.99426	0.05471
3800.96447	0.05433
3799.93468	0.05447
3798.90489	0.05470
3797.87509	0.05472
3796.84530	0.05472
3795.81551	0.05489
3794.78572	0.05513
3793.75592	0.05514
3792.72613	0.05494
3791.69634	0.05490
3790.66654	0.05538
3789.63675	0.05622
3788.60696	0.05670
3787.57717	0.05644
3786.54737	0.05579
3785.51758	0.05530
3784.48779	0.05521
3783.45800	0.05535
3782.42820	0.05548
3781.39841	0.05546
3780.36862	0.05541
3779.33883	0.05566
3778.30903	0.05628
3777.27924	0.05677
3776.24945	0.05667
3775.21966	0.05615
3774.18986	0.05563
3773.16007	0.05523
3772.13028	0.05487
3771.10049	0.05477
3770.07069	0.05516
3769.04090	0.05583
3768.01111	0.05619
3766.98132	0.05597
3765.95152	0.05524
3764.92173	0.05431
3763.89194	0.05368
3762.86214	0.05352
3761.83235	0.05357
3760.80256	0.05354
3759.77277	0.05358
3758.74297	0.05394
3757.71318	0.05440
3756.68339	0.05457
3755.65360	0.05434
3754.62380	0.05373
3753.59401	0.05298
3752.56422	0.05253
3751.53443	0.05274
3750.50463	0.05335
3749.47484	0.05383
3748.44505	0.05412
3747.41526	0.05453
3746.38546	0.05491
3745.35567	0.05477
3744.32588	0.05413
3743.29609	0.05360
3742.26629	0.05326
3741.23650	0.05300
3740.20671	0.05291
3739.17691	0.05289
3738.14712	0.05246
3737.11733	0.05145
3736.08754	0.05011
3735.05774	0.04895
3734.02795	0.04870
3732.99816	0.04972
3731.96837	0.05137
3730.93857	0.05256
3729.90878	0.05297
3728.87899	0.05305
3727.84920	0.05321
3726.81940	0.05328
3725.78961	0.05294
3724.75982	0.05222
3723.73003	0.05166
3722.70023	0.05169
3721.67044	0.05193
3720.64065	0.05158
3719.61086	0.05052
3718.58106	0.04970
3717.55127	0.04997
3716.52148	0.05109
3715.49169	0.05213
3714.46189	0.05228
3713.43210	0.05145
3712.40231	0.05043
3711.37251	0.05017
3710.34272	0.05084
3709.31293	0.05197
3708.28314	0.05298
3707.25334	0.05337
3706.22355	0.05301
3705.19376	0.05218
3704.16397	0.05142
3703.13417	0.05101
3702.10438	0.05094
3701.07459	0.05107
3700.04480	0.05132
3699.01500	0.05166
3697.98521	0.05190
3696.95542	0.05193
3695.92563	0.05166
3694.89583	0.05118
3693.86604	0.05061
3692.83625	0.05027
3691.80646	0.05043
3690.77666	0.05100
3689.74687	0.05174
3688.71708	0.05214
3687.68729	0.05215
3686.65749	0.05210
3685.62770	0.05219
3684.59791	0.05203
3683.56811	0.05142
3682.53832	0.05052
3681.50853	0.04994
3680.47874	0.05007
3679.44894	0.05064
3678.41915	0.05095
3677.38936	0.05082
3676.35957	0.05059
3675.32977	0.05050
3674.29998	0.05036
3673.27019	0.04976
3672.24040	0.04898
3671.21060	0.04906
3670.18081	0.05045
3669.15102	0.05195
3668.12123	0.05236
3667.09143	0.05187
3666.06164	0.05113
3665.03185	0.05053
3664.00206	0.05034
3662.97226	0.05058
3661.94247	0.05103
3660.91268	0.05128
3659.88289	0.05114
3658.85309	0.05087
3657.82330	0.05075
3656.79351	0.05064
3655.76371	0.05062
3654.73392	0.05089
3653.70413	0.05128
3652.67434	0.05174
3651.64454	0.05230
3650.61475	0.05251
3649.58496	0.05181
3648.55517	0.05090
3647.52537	0.05102
3646.49558	0.05196
3645.46579	0.05243
3644.43600	0.05198
3643.40620	0.05129
3642.37641	0.05095
3641.34662	0.05079
3640.31683	0.05036
3639.28703	0.04974
3638.25724	0.04959
3637.22745	0.05032
3636.19766	0.05164
3635.16786	0.05297
3634.13807	0.05365
3633.10828	0.05341
3632.07849	0.05270
3631.04869	0.05210
3630.01890	0.05187
3628.98911	0.05209
3627.95931	0.05273
3626.92952	0.05310
3625.89973	0.05308
3624.86994	0.05325
3623.84014	0.05363
3622.81035	0.05375
3621.78056	0.05358
3620.75077	0.05344
3619.72097	0.05348
3618.69118	0.05359
3617.66139	0.05366
3616.63160	0.05382
3615.60180	0.05394
3614.57201	0.05405
3613.54222	0.05462
3612.51243	0.05558
3611.48263	0.05598
3610.45284	0.05528
3609.42305	0.05397
3608.39326	0.05289
3607.36346	0.05250
3606.33367	0.05277
3605.30388	0.05347
3604.27408	0.05420
3603.24429	0.05474
3602.21450	0.05491
3601.18471	0.05459
3600.15491	0.05447
3599.12512	0.05481
3598.09533	0.05490
3597.06554	0.05452
3596.03574	0.05410
3595.00595	0.05417
3593.97616	0.05481
3592.94637	0.05568
3591.91657	0.05630
3590.88678	0.05656
3589.85699	0.05665
3588.82720	0.05626
3587.79740	0.05541
3586.76761	0.05454
3585.73782	0.05449
3584.70803	0.05508
3583.67823	0.05553
3582.64844	0.05555
3581.61865	0.05570
3580.58886	0.05635
3579.55906	0.05703
3578.52927	0.05726
3577.49948	0.05704
3576.46968	0.05684
3575.43989	0.05689
3574.41010	0.05680
3573.38031	0.05635
3572.35051	0.05607
3571.32072	0.05625
3570.29093	0.05678
3569.26114	0.05726
3568.23134	0.05729
3567.20155	0.05687
3566.17176	0.05645
3565.14197	0.05636
3564.11217	0.05665
3563.08238	0.05721
3562.05259	0.05762
3561.02280	0.05756
3559.99300	0.05736
3558.96321	0.05746
3557.93342	0.05791
3556.90363	0.05859
3555.87383	0.05919
3554.84404	0.05945
3553.81425	0.05953
3552.78446	0.05970
3551.75466	0.05992
3550.72487	0.06004
3549.69508	0.06016
3548.66528	0.06027
3547.63549	0.06015
3546.60570	0.05989
3545.57591	0.05966
3544.54611	0.05964
3543.51632	0.06023
3542.48653	0.06112
3541.45674	0.06136
3540.42694	0.06099
3539.39715	0.06066
3538.36736	0.06024
3537.33757	0.05974
3536.30777	0.05998
3535.27798	0.06087
3534.24819	0.06150
3533.21840	0.06167
3532.18860	0.06194
3531.15881	0.06247
3530.12902	0.06254
3529.09923	0.06177
3528.06943	0.06098
3527.03964	0.06095
3526.00985	0.06147
3524.98006	0.06197
3523.95026	0.06219
3522.92047	0.06238
3521.89068	0.06265
3520.86088	0.06277
3519.83109	0.06289
3518.80130	0.06302
3517.77151	0.06307
3516.74171	0.06369
3515.71192	0.06454
3514.68213	0.06448
3513.65234	0.06393
3512.62254	0.06393
3511.59275	0.06441
3510.56296	0.06492
3509.53317	0.06514
3508.50337	0.06514
3507.47358	0.06514
3506.44379	0.06534
3505.41400	0.06593
3504.38420	0.06617
3503.35441	0.06535
3502.32462	0.06447
3501.29483	0.06441
3500.26503	0.06462
3499.23524	0.06498
3498.20545	0.06561
3497.17565	0.06609
3496.14586	0.06639
3495.11607	0.06663
3494.08628	0.06655
3493.05648	0.06629
3492.02669	0.06619
3490.99690	0.06616
3489.96711	0.06609
3488.93731	0.06595
3487.90752	0.06622
3486.87773	0.06701
3485.84794	0.06727
3484.81814	0.06667
3483.78835	0.06622
3482.75856	0.06645
3481.72877	0.06660
3480.69897	0.06624
3479.66918	0.06614
3478.63939	0.06622
3477.60960	0.06589
3476.57980	0.06553
3475.55001	0.06552
3474.52022	0.06597
3473.49043	0.06654
3472.46063	0.06650
3471.43084	0.06600
3470.40105	0.06566
3469.37125	0.06566
3468.34146	0.06602
3467.31167	0.06693
3466.28188	0.06793
3465.25208	0.06803
3464.22229	0.06763
3463.19250	0.06759
3462.16271	0.06731
3461.13291	0.06662
3460.10312	0.06640
3459.07333	0.06676
3458.04354	0.06730
3457.01374	0.06787
3455.98395	0.06836
3454.95416	0.06840
3453.92437	0.06801
3452.89457	0.06759
3451.86478	0.06734
3450.83499	0.06765
3449.80520	0.06845
3448.77540	0.06881
3447.74561	0.06830
3446.71582	0.06761
3445.68603	0.06752
3444.65623	0.06797
3443.62644	0.06832
3442.59665	0.06860
3441.56685	0.06908
3440.53706	0.06956
3439.50727	0.06994
3438.47748	0.06994
3437.44768	0.06924
3436.41789	0.06870
3435.38810	0.06908
3434.35831	0.06964
3433.32851	0.06988
3432.29872	0.07023
3431.26893	0.07057
3430.23914	0.07041
3429.20934	0.06984
3428.17955	0.06939
3427.14976	0.06922
3426.11997	0.06941
3425.09017	0.07014
3424.06038	0.07093
3423.03059	0.07101
3422.00080	0.07079
3420.97100	0.07109
3419.94121	0.07148
3418.91142	0.07122
3417.88163	0.07075
3416.85183	0.07102
3415.82204	0.07166
3414.79225	0.07166
3413.76245	0.07145
3412.73266	0.07187
3411.70287	0.07250
3410.67308	0.07253
3409.64328	0.07208
3408.61349	0.07181
3407.58370	0.07195
3406.55391	0.07225
3405.52411	0.07258
3404.49432	0.07304
3403.46453	0.07358
3402.43474	0.07372
3401.40494	0.07353
3400.37515	0.07359
3399.34536	0.07389
3398.31557	0.07421
3397.28577	0.07435
3396.25598	0.07449
3395.22619	0.07497
3394.19640	0.07537
3393.16660	0.07524
3392.13681	0.07494
3391.10702	0.07479
3390.07723	0.07470
3389.04743	0.07486
3388.01764	0.07554
3386.98785	0.07635
3385.95805	0.07679
3384.92826	0.07686
3383.89847	0.07640
3382.86868	0.07535
3381.83888	0.07455
3380.80909	0.07478
3379.77930	0.07570
3378.74951	0.07633
3377.71971	0.07636
3376.68992	0.07630
3375.66013	0.07634
3374.63034	0.07610
3373.60054	0.07583
3372.57075	0.07606
3371.54096	0.07668
3370.51117	0.07750
3369.48137	0.07799
3368.45158	0.07786
3367.42179	0.07780
3366.39200	0.07811
3365.36220	0.07851
3364.33241	0.07914
3363.30262	0.07985
3362.27282	0.08002
3361.24303	0.07972
3360.21324	0.07955
3359.18345	0.07959
3358.15365	0.07990
3357.12386	0.08064
3356.09407	0.08145
3355.06428	0.08171
3354.03448	0.08202
3353.00469	0.08292
3351.97490	0.08351
3350.94511	0.08379
3349.91531	0.08443
3348.88552	0.08511
3347.85573	0.08552
3346.82594	0.08568
3345.79614	0.08569
3344.76635	0.08596
3343.73656	0.08673
3342.70677	0.08759
3341.67697	0.08817
3340.64718	0.08871
3339.61739	0.08953
3338.58760	0.09071
3337.55780	0.09193
3336.52801	0.09261
3335.49822	0.09266
3334.46842	0.09236
3333.43863	0.09218
3332.40884	0.09290
3331.37905	0.09467
3330.34925	0.09655
3329.31946	0.09774
3328.28967	0.09852
3327.25988	0.09951
3326.23008	0.10048
3325.20029	0.10109
3324.17050	0.10170
3323.14071	0.10261
3322.11091	0.10392
3321.08112	0.10561
3320.05133	0.10729
3319.02154	0.10877
3317.99174	0.11017
3316.96195	0.11160
3315.93216	0.11296
3314.90237	0.11416
3313.87257	0.11543
3312.84278	0.11699
3311.81299	0.11863
3310.78320	0.12008
3309.75340	0.12143
3308.72361	0.12269
3307.69382	0.12378
3306.66402	0.12505
3305.63423	0.12676
3304.60444	0.12852
3303.57465	0.13010
3302.54485	0.13183
3301.51506	0.13366
3300.48527	0.13560
3299.45548	0.13754
3298.42568	0.13873
3297.39589	0.13938
3296.36610	0.14073
3295.33631	0.14272
3294.30651	0.14440
3293.27672	0.14597
3292.24693	0.14805
3291.21714	0.14984
3290.18734	0.15041
3289.15755	0.15057
3288.12776	0.15172
3287.09797	0.15376
3286.06817	0.15541
3285.03838	0.15653
3284.00859	0.15787
3282.97880	0.15915
3281.94900	0.15988
3280.91921	0.16020
3279.88942	0.16024
3278.85962	0.16049
3277.82983	0.16143
3276.80004	0.16233
3275.77025	0.16233
3274.74045	0.16207
3273.71066	0.16255
3272.68087	0.16303
3271.65108	0.16251
3270.62128	0.16196
3269.59149	0.16189
3268.56170	0.16120
3267.53191	0.15974
3266.50211	0.15852
3265.47232	0.15763
3264.44253	0.15663
3263.41274	0.15596
3262.38294	0.15583
3261.35315	0.15573
3260.32336	0.15553
3259.29357	0.15510
3258.26377	0.15407
3257.23398	0.15252
3256.20419	0.15082
3255.17439	0.14891
3254.14460	0.14709
3253.11481	0.14631
3252.08502	0.14622
3251.05522	0.14565
3250.02543	0.14449
3248.99564	0.14314
3247.96585	0.14195
3246.93605	0.14130
3245.90626	0.14131
3244.87647	0.14152
3243.84668	0.14102
3242.81688	0.13962
3241.78709	0.13825
3240.75730	0.13717
3239.72751	0.13607
3238.69771	0.13529
3237.66792	0.13473
3236.63813	0.13420
3235.60834	0.13404
3234.57854	0.13388
3233.54875	0.13304
3232.51896	0.13170
3231.48917	0.13050
3230.45937	0.12967
3229.42958	0.12890
3228.39979	0.12808
3227.36999	0.12772
3226.34020	0.12775
3225.31041	0.12748
3224.28062	0.12687
3223.25082	0.12611
3222.22103	0.12515
3221.19124	0.12436
3220.16145	0.12396
3219.13165	0.12332
3218.10186	0.12228
3217.07207	0.12155
3216.04228	0.12111
3215.01248	0.12047
3213.98269	0.11970
3212.95290	0.11887
3211.92311	0.11818
3210.89331	0.11814
3209.86352	0.11829
3208.83373	0.11789
3207.80394	0.11723
3206.77414	0.11704
3205.74435	0.11719
3204.71456	0.11683
3203.68477	0.11578
3202.65497	0.11467
3201.62518	0.11400
3200.59539	0.11380
3199.56559	0.11386
3198.53580	0.11353
3197.50601	0.11254
3196.47622	0.11139
3195.44642	0.11037
3194.41663	0.10972
3193.38684	0.10960
3192.35705	0.10966
3191.32725	0.10948
3190.29746	0.10894
3189.26767	0.10813
3188.23788	0.10758
3187.20808	0.10735
3186.17829	0.10671
3185.14850	0.10573
3184.11871	0.10496
3183.08891	0.10465
3182.05912	0.10482
3181.02933	0.10515
3179.99954	0.10531
3178.96974	0.10524
3177.93995	0.10469
3176.91016	0.10374
3175.88037	0.10288
3174.85057	0.10214
3173.82078	0.10159
3172.79099	0.10129
3171.76119	0.10089
3170.73140	0.10033
3169.70161	0.09979
3168.67182	0.09921
3167.64202	0.09855
3166.61223	0.09793
3165.58244	0.09756
3164.55265	0.09757
3163.52285	0.09763
3162.49306	0.09759
3161.46327	0.09749
3160.43348	0.09713
3159.40368	0.09636
3158.37389	0.09560
3157.34410	0.09510
3156.31431	0.09474
3155.28451	0.09465
3154.25472	0.09465
3153.22493	0.09414
3152.19514	0.09345
3151.16534	0.09321
3150.13555	0.09296
3149.10576	0.09236
3148.07597	0.09199
3147.04617	0.09201
3146.01638	0.09199
3144.98659	0.09202
3143.95679	0.09235
3142.92700	0.09229
3141.89721	0.09139
3140.86742	0.09052
3139.83762	0.09078
3138.80783	0.09163
3137.77804	0.09153
3136.74825	0.09047
3135.71845	0.08940
3134.68866	0.08855
3133.65887	0.08822
3132.62908	0.08847
3131.59928	0.08849
3130.56949	0.08819
3129.53970	0.08790
3128.50991	0.08741
3127.48011	0.08701
3126.45032	0.08732
3125.42053	0.08798
3124.39074	0.08836
3123.36094	0.08831
3122.33115	0.08782
3121.30136	0.08733
3120.27156	0.08745
3119.24177	0.08771
3118.21198	0.08752
3117.18219	0.08725
3116.15239	0.08733
3115.12260	0.08743
3114.09281	0.08696
3113.06302	0.08621
3112.03322	0.08618
3111.00343	0.08685
3109.97364	0.08726
3108.94385	0.08719
3107.91405	0.08703
3106.88426	0.08709
3105.85447	0.08724
3104.82468	0.08703
3103.79488	0.08670
3102.76509	0.08675
3101.73530	0.08682
3100.70551	0.08659
3099.67571	0.08651
3098.64592	0.08690
3097.61613	0.08760
3096.58634	0.08814
3095.55654	0.08813
3094.52675	0.08798
3093.49696	0.08796
3092.46716	0.08765
3091.43737	0.08719
3090.40758	0.08709
3089.37779	0.08723
3088.34799	0.08748
3087.31820	0.08789
3086.28841	0.08842
3085.25862	0.08902
3084.22882	0.08965
3083.19903	0.08993
3082.16924	0.08974
3081.13945	0.08966
3080.10965	0.08981
3079.07986	0.08993
3078.05007	0.09015
3077.02028	0.09051
3075.99048	0.09060
3074.96069	0.09038
3073.93090	0.09035
3072.90111	0.09050
3071.87131	0.09048
3070.84152	0.09034
3069.81173	0.09013
3068.78194	0.08987
3067.75214	0.09010
3066.72235	0.09092
3065.69256	0.09122
3064.66276	0.09038
3063.63297	0.08933
3062.60318	0.08898
3061.57339	0.08917
3060.54359	0.08932
3059.51380	0.08920
3058.48401	0.08907
3057.45422	0.08908
3056.42442	0.08890
3055.39463	0.08847
3054.36484	0.08804
3053.33505	0.08751
3052.30525	0.08712
3051.27546	0.08728
3050.24567	0.08742
3049.21588	0.08708
3048.18608	0.08650
3047.15629	0.08593
3046.12650	0.08564
3045.09671	0.08562
3044.06691	0.08551
3043.03712	0.08545
3042.00733	0.08548
3040.97754	0.08530
3039.94774	0.08492
3038.91795	0.08440
3037.88816	0.08371
3036.85836	0.08313
3035.82857	0.08305
3034.79878	0.08327
3033.76899	0.08328
3032.73919	0.08308
3031.70940	0.08275
3030.67961	0.08225
3029.64982	0.08176
3028.62002	0.08126
3027.59023	0.08059
3026.56044	0.08015
3025.53065	0.08037
3024.50085	0.08079
3023.47106	0.08059
3022.44127	0.07993
3021.41148	0.07958
3020.38168	0.07957
3019.35189	0.07942
3018.32210	0.07919
3017.29231	0.07907
3016.26251	0.07890
3015.23272	0.07858
3014.20293	0.07812
3013.17313	0.07759
3012.14334	0.07735
3011.11355	0.07786
3010.08376	0.07881
3009.05396	0.07927
3008.02417	0.07890
3006.99438	0.07809
3005.96459	0.07736
3004.93479	0.07722
3003.90500	0.07740
3002.87521	0.07748
3001.84542	0.07752
3000.81562	0.07743
2999.78583	0.07728
2998.75604	0.07743
2997.72625	0.07773
2996.69645	0.07776
2995.66666	0.07750
2994.63687	0.07732
2993.60708	0.07742
2992.57728	0.07767
2991.54749	0.07804
2990.51770	0.07860
2989.48791	0.07913
2988.45811	0.07925
2987.42832	0.07913
2986.39853	0.07925
2985.36873	0.07959
2984.33894	0.07982
2983.30915	0.08004
2982.27936	0.08043
2981.24956	0.08078
2980.21977	0.08080
2979.18998	0.08073
2978.16019	0.08088
2977.13039	0.08113
2976.10060	0.08129
2975.07081	0.08124
2974.04102	0.08108
2973.01122	0.08116
2971.98143	0.08141
2970.95164	0.08141
2969.92185	0.08111
2968.89205	0.08105
2967.86226	0.08149
2966.83247	0.08199
2965.80268	0.08210
2964.77288	0.08155
2963.74309	0.08106
2962.71330	0.08141
2961.68351	0.08194
2960.65371	0.08195
2959.62392	0.08160
2958.59413	0.08119
2957.56433	0.08093
2956.53454	0.08090
2955.50475	0.08089
2954.47496	0.08085
2953.44516	0.08097
2952.41537	0.08124
2951.38558	0.08119
2950.35579	0.08064
2949.32599	0.08044
2948.29620	0.08082
2947.26641	0.08112
2946.23662	0.08111
2945.20682	0.08113
2944.17703	0.08136
2943.14724	0.08171
2942.11745	0.08213
2941.08765	0.08237
2940.05786	0.08245
2939.02807	0.08264
2937.99828	0.08305
2936.96848	0.08362
2935.93869	0.08434
2934.90890	0.08504
2933.87911	0.08528
2932.84931	0.08536
2931.81952	0.08578
2930.78973	0.08601
2929.75993	0.08583
2928.73014	0.08587
2927.70035	0.08626
2926.67056	0.08648
2925.64076	0.08643
2924.61097	0.08662
2923.58118	0.08706
2922.55139	0.08740
2921.52159	0.08774
2920.49180	0.08823
2919.46201	0.08847
2918.43222	0.08842
2917.40242	0.08852
2916.37263	0.08856
2915.34284	0.08807
2914.31305	0.08744
2913.28325	0.08686
2912.25346	0.08591
2911.22367	0.08469
2910.19388	0.08373
2909.16408	0.08305
2908.13429	0.08250
2907.10450	0.08199
2906.07471	0.08157
2905.04491	0.08124
2904.01512	0.08084
2902.98533	0.08049
2901.95553	0.08030
2900.92574	0.08012
2899.89595	0.07972
2898.86616	0.07938
2897.83636	0.07953
2896.80657	0.07968
2895.77678	0.07931
2894.74699	0.07893
2893.71719	0.07884
2892.68740	0.07868
2891.65761	0.07842
2890.62782	0.07804
2889.59802	0.07782
2888.56823	0.07787
2887.53844	0.07769
2886.50865	0.07746
2885.47885	0.07758
2884.44906	0.07766
2883.41927	0.07759
2882.38948	0.07777
2881.35968	0.07796
2880.32989	0.07770
2879.30010	0.07722
2878.27030	0.07719
2877.24051	0.07777
2876.21072	0.07826
2875.18093	0.07835
2874.15113	0.07833
2873.12134	0.07833
2872.09155	0.07837
2871.06176	0.07835
2870.03196	0.07807
2869.00217	0.07750
2867.97238	0.07720
2866.94259	0.07730
2865.91279	0.07728
2864.88300	0.07717
2863.85321	0.07697
2862.82342	0.07663
2861.79362	0.07663
2860.76383	0.07702
2859.73404	0.07736
2858.70425	0.07730
2857.67445	0.07693
2856.64466	0.07671
2855.61487	0.07669
2854.58508	0.07672
2853.55528	0.07684
2852.52549	0.07716
2851.49570	0.07766
2850.46590	0.07801
2849.43611	0.07803
2848.40632	0.07773
2847.37653	0.07713
2846.34673	0.07647
2845.31694	0.07576
2844.28715	0.07497
2843.25736	0.07417
2842.22756	0.07350
2841.19777	0.07304
2840.16798	0.07260
2839.13819	0.07228
2838.10839	0.07203
2837.07860	0.07139
2836.04881	0.07064
2835.01902	0.07051
2833.98922	0.07075
2832.95943	0.07096
2831.92964	0.07121
2830.89985	0.07120
2829.87005	0.07073
2828.84026	0.07042
2827.81047	0.07072
2826.78068	0.07106
2825.75088	0.07079
2824.72109	0.07028
2823.69130	0.06999
2822.66150	0.06992
2821.63171	0.07012
2820.60192	0.07054
2819.57213	0.07082
2818.54233	0.07081
2817.51254	0.07057
2816.48275	0.07035
2815.45296	0.07004
2814.42316	0.06949
2813.39337	0.06921
2812.36358	0.06932
2811.33379	0.06933
2810.30399	0.06917
2809.27420	0.06910
2808.24441	0.06921
2807.21462	0.06935
2806.18482	0.06934
2805.15503	0.06908
2804.12524	0.06877
2803.09545	0.06890
2802.06565	0.06940
2801.03586	0.06971
2800.00607	0.06943
2798.97628	0.06879
2797.94648	0.06829
2796.91669	0.06804
2795.88690	0.06802
2794.85710	0.06826
2793.82731	0.06838
2792.79752	0.06804
2791.76773	0.06765
2790.73793	0.06760
2789.70814	0.06769
2788.67835	0.06777
2787.64856	0.06784
2786.61876	0.06805
2785.58897	0.06819
2784.55918	0.06763
2783.52939	0.06699
2782.49959	0.06699
2781.46980	0.06726
2780.44001	0.06762
2779.41022	0.06799
2778.38042	0.06808
2777.35063	0.06778
2776.32084	0.06738
2775.29105	0.06722
2774.26125	0.06719
2773.23146	0.06716
2772.20167	0.06706
2771.17188	0.06677
2770.14208	0.06670
2769.11229	0.06689
2768.08250	0.06686
2767.05270	0.06663
2766.02291	0.06646
2764.99312	0.06641
2763.96333	0.06649
2762.93353	0.06674
2761.90374	0.06703
2760.87395	0.06689
2759.84416	0.06633
2758.81436	0.06599
2757.78457	0.06608
2756.75478	0.06616
2755.72499	0.06592
2754.69519	0.06565
2753.66540	0.06558
2752.63561	0.06560
2751.60582	0.06556
2750.57602	0.06542
2749.54623	0.06524
2748.51644	0.06506
2747.48665	0.06483
2746.45685	0.06485
2745.42706	0.06509
2744.39727	0.06507
2743.36747	0.06473
2742.33768	0.06450
2741.30789	0.06468
2740.27810	0.06489
2739.24830	0.06476
2738.21851	0.06466
2737.18872	0.06466
2736.15893	0.06437
2735.12913	0.06388
2734.09934	0.06378
2733.06955	0.06407
2732.03976	0.06420
2731.00996	0.06401
2729.98017	0.06375
2728.95038	0.06353
2727.92059	0.06337
2726.89079	0.06344
2725.86100	0.06356
2724.83121	0.06332
2723.80142	0.06316
2722.77162	0.06319
2721.74183	0.06310
2720.71204	0.06302
2719.68225	0.06318
2718.65245	0.06353
2717.62266	0.06358
2716.59287	0.06294
2715.56307	0.06229
2714.53328	0.06239
2713.50349	0.06286
2712.47370	0.06301
2711.44390	0.06292
2710.41411	0.06291
2709.38432	0.06293
2708.35453	0.06295
2707.32473	0.06293
2706.29494	0.06275
2705.26515	0.06232
2704.23536	0.06191
2703.20556	0.06193
2702.17577	0.06208
2701.14598	0.06179
2700.11619	0.06128
2699.08639	0.06127
2698.05660	0.06170
2697.02681	0.06179
2695.99702	0.06142
2694.96722	0.06127
2693.93743	0.06144
2692.90764	0.06159
2691.87785	0.06161
2690.84805	0.06158
2689.81826	0.06158
2688.78847	0.06143
2687.75867	0.06102
2686.72888	0.06078
2685.69909	0.06094
2684.66930	0.06109
2683.63950	0.06102
2682.60971	0.06088
2681.57992	0.06080
2680.55013	0.06089
2679.52033	0.06088
2678.49054	0.06050
2677.46075	0.06028
2676.43096	0.06056
2675.40116	0.06073
2674.37137	0.06053
2673.34158	0.06021
2672.31179	0.06006
2671.28199	0.06011
2670.25220	0.06018
2669.22241	0.06018
2668.19262	0.06006
2667.16282	0.06020
2666.13303	0.06073
2665.10324	0.06102
2664.07345	0.06077
2663.04365	0.06024
2662.01386	0.05993
2660.98407	0.06018
2659.95427	0.06053
2658.92448	0.06073
2657.89469	0.06094
2656.86490	0.06091
2655.83510	0.06045
2654.80531	0.05998
2653.77552	0.05997
2652.74573	0.06014
2651.71593	0.06010
2650.68614	0.06016
2649.65635	0.06012
2648.62656	0.05948
2647.59676	0.05880
2646.56697	0.05848
2645.53718	0.05843
2644.50739	0.05865
2643.47759	0.05874
2642.44780	0.05867
2641.41801	0.05902
2640.38822	0.05960
2639.35842	0.05964
2638.32863	0.05914
2637.29884	0.05854
2636.26904	0.05817
2635.23925	0.05820
2634.20946	0.05827
2633.17967	0.05835
2632.14987	0.05848
2631.12008	0.05847
2630.09029	0.05848
2629.06050	0.05870
2628.03070	0.05877
2627.00091	0.05848
2625.97112	0.05806
2624.94133	0.05754
2623.91153	0.05728
2622.88174	0.05733
2621.85195	0.05732
2620.82216	0.05723
2619.79236	0.05717
2618.76257	0.05717
2617.73278	0.05737
2616.70299	0.05781
2615.67319	0.05795
2614.64340	0.05741
2613.61361	0.05687
2612.58382	0.05701
2611.55402	0.05735
2610.52423	0.05731
2609.49444	0.05707
2608.46464	0.05689
2607.43485	0.05683
2606.40506	0.05676
2605.37527	0.05673
2604.34547	0.05697
2603.31568	0.05694
2602.28589	0.05656
2601.25610	0.05660
2600.22630	0.05677
2599.19651	0.05634
2598.16672	0.05579
2597.13693	0.05561
2596.10713	0.05573
2595.07734	0.05615
2594.04755	0.05667
2593.01776	0.05668
2591.98796	0.05623
2590.95817	0.05614
2589.92838	0.05652
2588.89859	0.05669
2587.86879	0.05625
2586.83900	0.05546
2585.80921	0.05503
2584.77942	0.05485
2583.74962	0.05449
2582.71983	0.05442
2581.69004	0.05508
2580.66024	0.05589
2579.63045	0.05619
2578.60066	0.05583
2577.57087	0.05496
2576.54107	0.05430
2575.51128	0.05446
2574.48149	0.05485
2573.45170	0.05493
2572.42190	0.05467
2571.39211	0.05429
2570.36232	0.05417
2569.33253	0.05409
2568.30273	0.05392
2567.27294	0.05373
2566.24315	0.05340
2565.21336	0.05349
2564.18356	0.05397
2563.15377	0.05398
2562.12398	0.05380
2561.09419	0.05397
2560.06439	0.05420
2559.03460	0.05418
2558.00481	0.05398
2556.97502	0.05376
2555.94522	0.05385
2554.91543	0.05422
2553.88564	0.05412
2552.85584	0.05350
2551.82605	0.05319
2550.79626	0.05339
2549.76647	0.05368
2548.73667	0.05355
2547.70688	0.05328
2546.67709	0.05342
2545.64730	0.05331
2544.61750	0.05289
2543.58771	0.05288
2542.55792	0.05319
2541.52813	0.05358
2540.49833	0.05359
2539.46854	0.05298
2538.43875	0.05255
2537.40896	0.05228
2536.37916	0.05180
2535.34937	0.05181
2534.31958	0.05224
2533.28979	0.05207
2532.25999	0.05151
2531.23020	0.05164
2530.20041	0.05218
2529.17062	0.05214
2528.14082	0.05174
2527.11103	0.05134
2526.08124	0.05105
2525.05144	0.05112
2524.02165	0.05147
2522.99186	0.05185
2521.96207	0.05197
2520.93227	0.05145
2519.90248	0.05079
2518.87269	0.05094
2517.84290	0.05143
2516.81310	0.05156
2515.78331	0.05165
2514.75352	0.05191
2513.72373	0.05200
2512.69393	0.05215
2511.66414	0.05275
2510.63435	0.05284
2509.60456	0.05200
2508.57476	0.05126
2507.54497	0.05117
2506.51518	0.05126
2505.48539	0.05112
2504.45559	0.05068
2503.42580	0.05024
2502.39601	0.05054
2501.36621	0.05142
2500.33642	0.05191
2499.30663	0.05177
2498.27684	0.05124
2497.24704	0.05055
2496.21725	0.05019
2495.18746	0.05034
2494.15767	0.05067
2493.12787	0.05070
2492.09808	0.05035
2491.06829	0.05041
2490.03850	0.05086
2489.00870	0.05076
2487.97891	0.05038
2486.94912	0.05032
2485.91933	0.05058
2484.88953	0.05066
2483.85974	0.05040
2482.82995	0.05050
2481.80016	0.05094
2480.77036	0.05098
2479.74057	0.05043
2478.71078	0.04973
2477.68099	0.04941
2476.65119	0.04940
2475.62140	0.04952
2474.59161	0.04963
2473.56181	0.04961
2472.53202	0.04962
2471.50223	0.04969
2470.47244	0.04961
2469.44264	0.04963
2468.41285	0.05017
2467.38306	0.05086
2466.35327	0.05109
2465.32347	0.05076
2464.29368	0.05020
2463.26389	0.05008
2462.23410	0.05040
2461.20430	0.05044
2460.17451	0.05027
2459.14472	0.05035
2458.11493	0.05031
2457.08513	0.04979
2456.05534	0.04934
2455.02555	0.04928
2453.99576	0.04920
2452.96596	0.04907
2451.93617	0.04903
2450.90638	0.04897
2449.87659	0.04894
2448.84679	0.04896
2447.81700	0.04922
2446.78721	0.04982
2445.75741	0.05014
2444.72762	0.04963
2443.69783	0.04892
2442.66804	0.04872
2441.63824	0.04890
2440.60845	0.04895
2439.57866	0.04883
2438.54887	0.04889
2437.51907	0.04902
2436.48928	0.04908
2435.45949	0.04901
2434.42970	0.04864
2433.39990	0.04858
2432.37011	0.04901
2431.34032	0.04933
2430.31053	0.04935
2429.28073	0.04899
2428.25094	0.04856
2427.22115	0.04866
2426.19136	0.04905
2425.16156	0.04921
2424.13177	0.04910
2423.10198	0.04906
2422.07219	0.04919
2421.04239	0.04903
2420.01260	0.04862
2418.98281	0.04850
2417.95301	0.04855
2416.92322	0.04840
2415.89343	0.04819
2414.86364	0.04830
2413.83384	0.04856
2412.80405	0.04867
2411.77426	0.04858
2410.74447	0.04825
2409.71467	0.04796
2408.68488	0.04785
2407.65509	0.04762
2406.62530	0.04716
2405.59550	0.04696
2404.56571	0.04743
2403.53592	0.04796
2402.50613	0.04794
2401.47633	0.04748
2400.44654	0.04682
2399.41675	0.04654
2398.38696	0.04671
2397.35716	0.04713
2396.32737	0.04767
2395.29758	0.04805
2394.26778	0.04808
2393.23799	0.04789
2392.20820	0.04773
2391.17841	0.04776
2390.14861	0.04786
2389.11882	0.04792
2388.08903	0.04800
2387.05924	0.04797
2386.02944	0.04765
2384.99965	0.04724
2383.96986	0.04712
2382.94007	0.04733
2381.91027	0.04749
2380.88048	0.04738
2379.85069	0.04694
2378.82090	0.04650
2377.79110	0.04632
2376.76131	0.04654
2375.73152	0.04669
2374.70173	0.04667
2373.67193	0.04627
2372.64214	0.04560
2371.61235	0.04541
2370.58256	0.04553
2369.55276	0.04558
2368.52297	0.04608
2367.49318	0.04705
2366.46338	0.04829
2365.43359	0.04847
2364.40380	0.04778
2363.37401	0.04674
2362.34421	0.04562
2361.31442	0.04550
2360.28463	0.04566
2359.25484	0.04583
2358.22504	0.04642
2357.19525	0.04712
2356.16546	0.04692
2355.13567	0.04635
2354.10587	0.04667
2353.07608	0.04668
2352.04629	0.04655
2351.01650	0.04692
2349.98670	0.04777
2348.95691	0.04800
2347.92712	0.04639
2346.89733	0.04574
2345.86753	0.04559
2344.83774	0.04607
2343.80795	0.04726
2342.77816	0.04674
2341.74836	0.04630
2340.71857	0.04588
2339.68878	0.04543
2338.65898	0.04616
2337.62919	0.04559
2336.59940	0.04701
2335.56961	0.04708
2334.53981	0.04730
2333.51002	0.04801
2332.48023	0.04634
2331.45044	0.04688
2330.42064	0.04542
2329.39085	0.04647
2328.36106	0.04604
2327.33127	0.04677
2326.30147	0.04784
2325.27168	0.04711
2324.24189	0.04786
2323.21210	0.04671
2322.18230	0.04842
2321.15251	0.04679
2320.12272	0.04769
2319.09293	0.04653
2318.06313	0.04692
2317.03334	0.04497
2316.00355	0.04532
2314.97376	0.04489
2313.94396	0.04606
2312.91417	0.04580
2311.88438	0.04604
2310.85458	0.04512
2309.82479	0.04541
2308.79500	0.04442
2307.76521	0.04441
2306.73541	0.04379
2305.70562	0.04436
2304.67583	0.04433
2303.64604	0.04505
2302.61624	0.04482
2301.58645	0.04525
2300.55666	0.04531
2299.52687	0.04562
2298.49707	0.04528
2297.46728	0.04542
2296.43749	0.04551
2295.40770	0.04539
2294.37790	0.04499
2293.34811	0.04459
2292.31832	0.04446
2291.28853	0.04427
2290.25873	0.04402
2289.22894	0.04391
2288.19915	0.04455
2287.16936	0.04506
2286.13956	0.04483
2285.10977	0.04420
2284.07998	0.04403
2283.05018	0.04434
2282.02039	0.04431
2280.99060	0.04373
2279.96081	0.04310
2278.93101	0.04284
2277.90122	0.04267
2276.87143	0.04233
2275.84164	0.04250
2274.81184	0.04334
2273.78205	0.04360
2272.75226	0.04280
2271.72247	0.04185
2270.69267	0.04168
2269.66288	0.04221
2268.63309	0.04278
2267.60330	0.04285
2266.57350	0.04210
2265.54371	0.04151
2264.51392	0.04132
2263.48413	0.04149
2262.45433	0.04212
2261.42454	0.04275
2260.39475	0.04314
2259.36495	0.04337
2258.33516	0.04361
2257.30537	0.04348
2256.27558	0.04325
2255.24578	0.04258
2254.21599	0.04130
2253.18620	0.04028
2252.15641	0.04081
2251.12661	0.04214
2250.09682	0.04253
2249.06703	0.04161
2248.03724	0.04061
2247.00744	0.04020
2245.97765	0.03984
2244.94786	0.03927
2243.91807	0.03917
2242.88827	0.03994
2241.85848	0.04075
2240.82869	0.04101
2239.79890	0.04076
2238.76910	0.04026
2237.73931	0.03948
2236.70952	0.03853
2235.67973	0.03844
2234.64993	0.03926
2233.62014	0.03979
2232.59035	0.03958
2231.56055	0.03902
2230.53076	0.03901
2229.50097	0.03933
2228.47118	0.03891
2227.44138	0.03805
2226.41159	0.03734
2225.38180	0.03708
2224.35201	0.03760
2223.32221	0.03852
2222.29242	0.03904
2221.26263	0.03924
2220.23284	0.03993
2219.20304	0.04035
2218.17325	0.03938
2217.14346	0.03872
2216.11367	0.03926
2215.08387	0.03941
2214.05408	0.03946
2213.02429	0.04004
2211.99450	0.03994
2210.96470	0.03919
2209.93491	0.03909
2208.90512	0.03944
2207.87533	0.03890
2206.84553	0.03766
2205.81574	0.03724
2204.78595	0.03752
2203.75615	0.03793
2202.72636	0.03824
2201.69657	0.03810
2200.66678	0.03815
2199.63698	0.03767
2198.60719	0.03639
2197.57740	0.03641
2196.54761	0.03781
2195.51781	0.03839
2194.48802	0.03723
2193.45823	0.03614
2192.42844	0.03633
2191.39864	0.03638
2190.36885	0.03600
2189.33906	0.03635
2188.30927	0.03687
2187.27947	0.03706
2186.24968	0.03683
2185.21989	0.03604
2184.19010	0.03544
2183.16030	0.03508
2182.13051	0.03508
2181.10072	0.03563
2180.07093	0.03537
2179.04113	0.03479
2178.01134	0.03564
2176.98155	0.03672
2175.95175	0.03700
2174.92196	0.03724
2173.89217	0.03700
2172.86238	0.03628
2171.83258	0.03601
2170.80279	0.03600
2169.77300	0.03589
2168.74321	0.03613
2167.71341	0.03676
2166.68362	0.03697
2165.65383	0.03680
2164.62404	0.03694
2163.59424	0.03764
2162.56445	0.03819
2161.53466	0.03728
2160.50487	0.03523
2159.47507	0.03294
2158.44528	0.03131
2157.41549	0.03085
2156.38570	0.03063
2155.35590	0.03103
2154.32611	0.03205
2153.29632	0.03236
2152.26652	0.03244
2151.23673	0.03304
2150.20694	0.03400
2149.17715	0.03498
2148.14735	0.03502
2147.11756	0.03400
2146.08777	0.03311
2145.05798	0.03271
2144.02818	0.03298
2142.99839	0.03413
2141.96860	0.03495
2140.93881	0.03505
2139.90901	0.03502
2138.87922	0.03464
2137.84943	0.03365
2136.81964	0.03336
2135.78984	0.03401
2134.76005	0.03319
2133.73026	0.03176
2132.70047	0.03303
2131.67067	0.03554
2130.64088	0.03584
2129.61109	0.03441
2128.58130	0.03364
2127.55150	0.03399
2126.52171	0.03479
2125.49192	0.03544
2124.46212	0.03567
2123.43233	0.03597
2122.40254	0.03678
2121.37275	0.03701
2120.34295	0.03606
2119.31316	0.03534
2118.28337	0.03538
2117.25358	0.03586
2116.22378	0.03663
2115.19399	0.03700
2114.16420	0.03686
2113.13441	0.03655
2112.10461	0.03587
2111.07482	0.03539
2110.04503	0.03598
2109.01524	0.03650
2107.98544	0.03573
2106.95565	0.03442
2105.92586	0.03382
2104.89607	0.03456
2103.86627	0.03582
2102.83648	0.03601
2101.80669	0.03538
2100.77690	0.03510
2099.74710	0.03492
2098.71731	0.03481
2097.68752	0.03501
2096.65772	0.03500
2095.62793	0.03443
2094.59814	0.03405
2093.56835	0.03498
2092.53855	0.03668
2091.50876	0.03719
2090.47897	0.03603
2089.44918	0.03488
2088.41938	0.03467
2087.38959	0.03485
2086.35980	0.03488
2085.33001	0.03511
2084.30021	0.03606
2083.27042	0.03692
2082.24063	0.03652
2081.21084	0.03570
2080.18104	0.03562
2079.15125	0.03584
2078.12146	0.03564
2077.09167	0.03464
2076.06187	0.03333
2075.03208	0.03308
2074.00229	0.03392
2072.97250	0.03458
2071.94270	0.03481
2070.91291	0.03493
2069.88312	0.03473
2068.85332	0.03417
2067.82353	0.03359
2066.79374	0.03337
2065.76395	0.03344
2064.73415	0.03337
2063.70436	0.03318
2062.67457	0.03285
2061.64478	0.03215
2060.61498	0.03179
2059.58519	0.03218
2058.55540	0.03260
2057.52561	0.03282
2056.49581	0.03289
2055.46602	0.03262
2054.43623	0.03232
2053.40644	0.03200
2052.37664	0.03181
2051.34685	0.03275
2050.31706	0.03425
2049.28727	0.03408
2048.25747	0.03268
2047.22768	0.03230
2046.19789	0.03278
2045.16810	0.03272
2044.13830	0.03192
2043.10851	0.03095
2042.07872	0.03083
2041.04892	0.03147
2040.01913	0.03146
2038.98934	0.03087
2037.95955	0.03082
2036.92975	0.03108
2035.89996	0.03092
2034.87017	0.03026
2033.84038	0.02924
2032.81058	0.02924
2031.78079	0.03113
2030.75100	0.03268
2029.72121	0.03170
2028.69141	0.02925
2027.66162	0.02725
2026.63183	0.02648
2025.60204	0.02777
2024.57224	0.02961
2023.54245	0.02964
2022.51266	0.02967
2021.48287	0.03138
2020.45307	0.03274
2019.42328	0.03207
2018.39349	0.03031
2017.36369	0.02897
2016.33390	0.02787
2015.30411	0.02697
2014.27432	0.02731
2013.24452	0.02825
2012.21473	0.02817
2011.18494	0.02728
2010.15515	0.02720
2009.12535	0.02817
2008.09556	0.02864
2007.06577	0.02885
2006.03598	0.02917
2005.00618	0.02838
2003.97639	0.02690
2002.94660	0.02612
2001.91681	0.02616
2000.88701	0.02688
1999.85722	0.02771
1998.82743	0.02787
1997.79764	0.02819
1996.76784	0.02909
1995.73805	0.02969
1994.70826	0.02963
1993.67847	0.02908
1992.64867	0.02891
1991.61888	0.02989
1990.58909	0.03089
1989.55929	0.03061
1988.52950	0.02965
1987.49971	0.02923
1986.46992	0.02938
1985.44012	0.02927
1984.41033	0.02937
1983.38054	0.02990
1982.35075	0.02924
1981.32095	0.02726
1980.29116	0.02611
1979.26137	0.02643
1978.23158	0.02692
1977.20178	0.02738
1976.17199	0.02756
1975.14220	0.02704
1974.11241	0.02724
1973.08261	0.02828
1972.05282	0.02838
1971.02303	0.02778
1969.99324	0.02806
1968.96344	0.02877
1967.93365	0.02862
1966.90386	0.02784
1965.87407	0.02701
1964.84427	0.02632
1963.81448	0.02640
1962.78469	0.02702
1961.75489	0.02718
1960.72510	0.02684
1959.69531	0.02662
1958.66552	0.02657
1957.63572	0.02598
1956.60593	0.02520
1955.57614	0.02579
1954.54635	0.02800
1953.51655	0.02951
1952.48676	0.02870
1951.45697	0.02731
1950.42718	0.02706
1949.39738	0.02742
1948.36759	0.02788
1947.33780	0.02837
1946.30801	0.02834
1945.27821	0.02792
1944.24842	0.02770
1943.21863	0.02787
1942.18884	0.02851
1941.15904	0.02891
1940.12925	0.02841
1939.09946	0.02750
1938.06967	0.02692
1937.03987	0.02701
1936.01008	0.02737
1934.98029	0.02750
1933.95049	0.02775
1932.92070	0.02820
1931.89091	0.02854
1930.86112	0.02893
1929.83132	0.02940
1928.80153	0.02969
1927.77174	0.02958
1926.74195	0.02913
1925.71215	0.02870
1924.68236	0.02862
1923.65257	0.02885
1922.62278	0.02902
1921.59298	0.02887
1920.56319	0.02841
1919.53340	0.02778
1918.50361	0.02726
1917.47381	0.02712
1916.44402	0.02726
1915.41423	0.02726
1914.38444	0.02715
1913.35464	0.02711
1912.32485	0.02727
1911.29506	0.02753
1910.26527	0.02772
1909.23547	0.02793
1908.20568	0.02802
1907.17589	0.02777
1906.14609	0.02752
1905.11630	0.02775
1904.08651	0.02808
1903.05672	0.02813
1902.02692	0.02823
1900.99713	0.02833
1899.96734	0.02814
1898.93755	0.02772
1897.90775	0.02725
1896.87796	0.02693
1895.84817	0.02677
1894.81838	0.02679
1893.78858	0.02690
1892.75879	0.02699
1891.72900	0.02705
1890.69921	0.02698
1889.66941	0.02669
1888.63962	0.02633
1887.60983	0.02608
1886.58004	0.02609
1885.55024	0.02648
1884.52045	0.02702
1883.49066	0.02719
1882.46086	0.02688
1881.43107	0.02640
1880.40128	0.02626
1879.37149	0.02653
1878.34169	0.02669
1877.31190	0.02666
1876.28211	0.02683
1875.25232	0.02699
1874.22252	0.02674
1873.19273	0.02613
1872.16294	0.02549
1871.13315	0.02512
1870.10335	0.02512
1869.07356	0.02533
1868.04377	0.02560
1867.01398	0.02558
1865.98418	0.02521
1864.95439	0.02501
1863.92460	0.02513
1862.89481	0.02508
1861.86501	0.02481
1860.83522	0.02481
1859.80543	0.02522
1858.77564	0.02564
1857.74584	0.02577
1856.71605	0.02561
1855.68626	0.02527
1854.65646	0.02481
1853.62667	0.02444
1852.59688	0.02447
1851.56709	0.02469
1850.53729	0.02478
1849.50750	0.02479
1848.47771	0.02477
1847.44792	0.02467
1846.41812	0.02461
1845.38833	0.02457
1844.35854	0.02443
1843.32875	0.02432
1842.29895	0.02431
1841.26916	0.02439
1840.23937	0.02447
1839.20958	0.02445
1838.17978	0.02436
1837.14999	0.02413
1836.12020	0.02373
1835.09041	0.02342
1834.06061	0.02342
1833.03082	0.02372
1832.00103	0.02409
1830.97124	0.02419
1829.94144	0.02406
1828.91165	0.02394
1827.88186	0.02393
1826.85206	0.02388
1825.82227	0.02370
1824.79248	0.02353
1823.76269	0.02355
1822.73289	0.02362
1821.70310	0.02351
1820.67331	0.02323
1819.64352	0.02291
1818.61372	0.02258
1817.58393	0.02224
1816.55414	0.02208
1815.52435	0.02221
1814.49455	0.02245
1813.46476	0.02258
1812.43497	0.02258
1811.40518	0.02255
1810.37538	0.02256
1809.34559	0.02254
1808.31580	0.02240
1807.28601	0.02224
1806.25621	0.02218
1805.22642	0.02216
1804.19663	0.02207
1803.16684	0.02192
1802.13704	0.02182
1801.10725	0.02177
1800.07746	0.02170
1799.04766	0.02170
1798.01787	0.02181
1796.98808	0.02182
1795.95829	0.02159
1794.92849	0.02129
1793.89870	0.02108
1792.86891	0.02100
1791.83912	0.02106
1790.80932	0.02122
1789.77953	0.02127
1788.74974	0.02115
1787.71995	0.02096
1786.69015	0.02080
1785.66036	0.02062
1784.63057	0.02036
1783.60078	0.02016
1782.57098	0.02006
1781.54119	0.01993
1780.51140	0.01974
1779.48161	0.01965
1778.45181	0.01970
1777.42202	0.01986
1776.39223	0.02002
1775.36243	0.02002
1774.33264	0.01979
1773.30285	0.01949
1772.27306	0.01927
1771.24326	0.01911
1770.21347	0.01899
1769.18368	0.01903
1768.15389	0.01926
1767.12409	0.01940
1766.09430	0.01926
1765.06451	0.01901
1764.03472	0.01887
1763.00492	0.01892
1761.97513	0.01898
1760.94534	0.01888
1759.91555	0.01862
1758.88575	0.01835
1757.85596	0.01814
1756.82617	0.01798
1755.79638	0.01786
1754.76658	0.01784
1753.73679	0.01789
1752.70700	0.01789
1751.67721	0.01783
1750.64741	0.01783
1749.61762	0.01782
1748.58783	0.01764
1747.55803	0.01736
1746.52824	0.01716
1745.49845	0.01707
1744.46866	0.01706
1743.43886	0.01714
1742.40907	0.01728
1741.37928	0.01729
1740.34949	0.01711
1739.31969	0.01685
1738.28990	0.01663
1737.26011	0.01644
1736.23032	0.01624
1735.20052	0.01607
1734.17073	0.01600
1733.14094	0.01595
1732.11115	0.01586
1731.08135	0.01581
1730.05156	0.01584
1729.02177	0.01589
1727.99198	0.01590
1726.96218	0.01586
1725.93239	0.01580
1724.90260	0.01580
1723.87281	0.01591
1722.84301	0.01605
1721.81322	0.01612
1720.78343	0.01610
1719.75363	0.01602
1718.72384	0.01596
1717.69405	0.01597
1716.66426	0.01608
1715.63446	0.01635
1714.60467	0.01688
1713.57488	0.01766
1712.54509	0.01854
1711.51529	0.01942
1710.48550	0.02036
1709.45571	0.02156
1708.42592	0.02319
1707.39612	0.02535
1706.36633	0.02803
1705.33654	0.03117
1704.30675	0.03462
1703.27695	0.03811
1702.24716	0.04142
1701.21737	0.04462
1700.18758	0.04771
1699.15778	0.04992
1698.12799	0.05074
1697.09820	0.05063
1696.06841	0.05027
1695.03861	0.05003
1694.00882	0.04987
1692.97903	0.04962
1691.94923	0.04926
1690.91944	0.04900
1689.88965	0.04910
1688.85986	0.04957
1687.83006	0.05018
1686.80027	0.05076
1685.77048	0.05141
1684.74069	0.05227
1683.71089	0.05328
1682.68110	0.05423
1681.65131	0.05512
1680.62152	0.05610
1679.59172	0.05718
1678.56193	0.05826
1677.53214	0.05937
1676.50235	0.06064
1675.47255	0.06210
1674.44276	0.06353
1673.41297	0.06470
1672.38318	0.06573
1671.35338	0.06687
1670.32359	0.06824
1669.29380	0.06978
1668.26401	0.07134
1667.23421	0.07280
1666.20442	0.07423
1665.17463	0.07574
1664.14483	0.07741
1663.11504	0.07931
1662.08525	0.08132
1661.05546	0.08321
1660.02566	0.08495
1658.99587	0.08667
1657.96608	0.08839
1656.93629	0.08999
1655.90649	0.09140
1654.87670	0.09278
1653.84691	0.09453
1652.81712	0.09683
1651.78732	0.09917
1650.75753	0.10097
1649.72774	0.10233
1648.69795	0.10369
1647.66815	0.10534
1646.63836	0.10736
1645.60857	0.10950
1644.57878	0.11141
1643.54898	0.11307
1642.51919	0.11478
1641.48940	0.11669
1640.45960	0.11871
1639.42981	0.12070
1638.40002	0.12265
1637.37023	0.12472
1636.34043	0.12721
1635.31064	0.13018
1634.28085	0.13314
1633.25106	0.13558
1632.22126	0.13762
1631.19147	0.13959
1630.16168	0.14167
1629.13189	0.14388
1628.10209	0.14619
1627.07230	0.14840
1626.04251	0.15027
1625.01272	0.15183
1623.98292	0.15332
1622.95313	0.15480
1621.92334	0.15600
1620.89355	0.15669
1619.86375	0.15690
1618.83396	0.15675
1617.80417	0.15637
1616.77438	0.15584
1615.74458	0.15503
1614.71479	0.15375
1613.68500	0.15214
1612.65520	0.15041
1611.62541	0.14856
1610.59562	0.14649
1609.56583	0.14414
1608.53603	0.14151
1607.50624	0.13869
1606.47645	0.13578
1605.44666	0.13276
1604.41686	0.12963
1603.38707	0.12644
1602.35728	0.12328
1601.32749	0.12025
1600.29769	0.11738
1599.26790	0.11467
1598.23811	0.11207
1597.20832	0.10955
1596.17852	0.10713
1595.14873	0.10480
1594.11894	0.10250
1593.08915	0.10022
1592.05935	0.09800
1591.02956	0.09588
1589.99977	0.09388
1588.96998	0.09197
1587.94018	0.09013
1586.91039	0.08833
1585.88060	0.08663
1584.85080	0.08509
1583.82101	0.08375
1582.79122	0.08259
1581.76143	0.08159
1580.73163	0.08076
1579.70184	0.08006
1578.67205	0.07942
1577.64226	0.07881
1576.61246	0.07834
1575.58267	0.07814
1574.55288	0.07813
1573.52309	0.07816
1572.49329	0.07825
1571.46350	0.07845
1570.43371	0.07884
1569.40392	0.07947
1568.37412	0.08020
1567.34433	0.08090
1566.31454	0.08162
1565.28475	0.08252
1564.25495	0.08358
1563.22516	0.08457
1562.19537	0.08538
1561.16558	0.08615
1560.13578	0.08726
1559.10599	0.08891
1558.07620	0.09077
1557.04640	0.09230
1556.01661	0.09340
1554.98682	0.09447
1553.95703	0.09572
1552.92723	0.09696
1551.89744	0.09806
1550.86765	0.09919
1549.83786	0.10054
1548.80806	0.10200
1547.77827	0.10331
1546.74848	0.10444
1545.71869	0.10561
1544.68889	0.10697
1543.65910	0.10841
1542.62931	0.10981
1541.59952	0.11122
1540.56972	0.11277
1539.53993	0.11464
1538.51014	0.11669
1537.48035	0.11839
1536.45055	0.11967
1535.42076	0.12079
1534.39097	0.12206
1533.36117	0.12362
1532.33138	0.12529
1531.30159	0.12683
1530.27180	0.12823
1529.24200	0.12960
1528.21221	0.13103
1527.18242	0.13252
1526.15263	0.13400
1525.12283	0.13541
1524.09304	0.13665
1523.06325	0.13783
1522.03346	0.13936
1521.00366	0.14141
1519.97387	0.14359
1518.94408	0.14554
1517.91429	0.14751
1516.88449	0.14976
1515.85470	0.15198
1514.82491	0.15372
1513.79512	0.15490
1512.76532	0.15576
1511.73553	0.15643
1510.70574	0.15672
1509.67595	0.15648
1508.64615	0.15586
1507.61636	0.15525
1506.58657	0.15497
1505.55677	0.15490
1504.52698	0.15456
1503.49719	0.15378
1502.46740	0.15268
1501.43760	0.15139
1500.40781	0.14994
1499.37802	0.14840
1498.34823	0.14688
1497.31843	0.14539
1496.28864	0.14382
1495.25885	0.14215
1494.22906	0.14036
1493.19926	0.13845
1492.16947	0.13639
1491.13968	0.13419
1490.10989	0.13198
1489.08009	0.12986
1488.05030	0.12786
1487.02051	0.12589
1485.99072	0.12384
1484.96092	0.12163
1483.93113	0.11933
1482.90134	0.11712
1481.87155	0.11509
1480.84175	0.11322
1479.81196	0.11145
1478.78217	0.10977
1477.75237	0.10816
1476.72258	0.10659
1475.69279	0.10508
1474.66300	0.10368
1473.63320	0.10240
1472.60341	0.10127
1471.57362	0.10027
1470.54383	0.09935
1469.51403	0.09847
1468.48424	0.09759
1467.45445	0.09666
1466.42466	0.09569
1465.39486	0.09479
1464.36507	0.09409
1463.33528	0.09356
1462.30549	0.09310
1461.27569	0.09273
1460.24590	0.09254
1459.21611	0.09258
1458.18632	0.09291
1457.15652	0.09361
1456.12673	0.09460
1455.09694	0.09565
1454.06715	0.09671
1453.03735	0.09790
1452.00756	0.09930
1450.97777	0.10080
1449.94797	0.10225
1448.91818	0.10366
1447.88839	0.10503
1446.85860	0.10621
1445.82880	0.10706
1444.79901	0.10765
1443.76922	0.10809
1442.73943	0.10848
1441.70963	0.10883
1440.67984	0.10906
1439.65005	0.10906
1438.62026	0.10879
1437.59046	0.10830
1436.56067	0.10759
1435.53088	0.10662
1434.50109	0.10543
1433.47129	0.10408
1432.44150	0.10257
1431.41171	0.10099
1430.38192	0.09944
1429.35212	0.09796
1428.32233	0.09657
1427.29254	0.09531
1426.26275	0.09420
1425.23295	0.09325
1424.20316	0.09239
1423.17337	0.09164
1422.14357	0.09103
1421.11378	0.09059
1420.08399	0.09034
1419.05420	0.09025
1418.02440	0.09016
1416.99461	0.09005
1415.96482	0.09002
1414.93503	0.09003
1413.90523	0.09004
1412.87544	0.09002
1411.84565	0.08999
1410.81586	0.09002
1409.78606	0.09013
1408.75627	0.09021
1407.72648	0.09025
1406.69669	0.09021
1405.66689	0.09010
1404.63710	0.09005
1403.60731	0.09006
1402.57752	0.08992
1401.54772	0.08955
1400.51793	0.08906
1399.48814	0.08859
1398.45834	0.08826
1397.42855	0.08796
1396.39876	0.08745
1395.36897	0.08679
1394.33917	0.08635
1393.30938	0.08617
1392.27959	0.08602
1391.24980	0.08585
1390.22000	0.08573
1389.19021	0.08560
1388.16042	0.08536
1387.13063	0.08512
1386.10083	0.08488
1385.07104	0.08455
1384.04125	0.08415
1383.01146	0.08379
1381.98166	0.08352
1380.95187	0.08333
1379.92208	0.08317
1378.89229	0.08303
1377.86249	0.08287
1376.83270	0.08264
1375.80291	0.08236
1374.77312	0.08216
1373.74332	0.08219
1372.71353	0.08231
1371.68374	0.08241
1370.65394	0.08255
1369.62415	0.08270
1368.59436	0.08275
1367.56457	0.08267
1366.53477	0.08248
1365.50498	0.08216
1364.47519	0.08163
1363.44540	0.08103
1362.41560	0.08049
1361.38581	0.07982
1360.35602	0.07895
1359.32623	0.07819
1358.29643	0.07762
1357.26664	0.07706
1356.23685	0.07645
1355.20706	0.07584
1354.17726	0.07526
1353.14747	0.07483
1352.11768	0.07464
1351.08789	0.07455
1350.05809	0.07434
1349.02830	0.07406
1347.99851	0.07384
1346.96872	0.07370
1345.93892	0.07361
1344.90913	0.07352
1343.87934	0.07340
1342.84954	0.07323
1341.81975	0.07312
1340.78996	0.07312
1339.76017	0.07316
1338.73037	0.07322
1337.70058	0.07329
1336.67079	0.07334
1335.64100	0.07331
1334.61120	0.07323
1333.58141	0.07311
1332.55162	0.07303
1331.52183	0.07295
1330.49203	0.07278
1329.46224	0.07247
1328.43245	0.07208
1327.40266	0.07168
1326.37286	0.07132
1325.34307	0.07097
1324.31328	0.07069
1323.28349	0.07053
1322.25369	0.07031
1321.22390	0.06996
1320.19411	0.06958
1319.16432	0.06927
1318.13452	0.06902
1317.10473	0.06882
1316.07494	0.06867
1315.04514	0.06850
1314.01535	0.06825
1312.98556	0.06798
1311.95577	0.06781
1310.92597	0.06774
1309.89618	0.06773
1308.86639	0.06762
1307.83660	0.06738
1306.80680	0.06710
1305.77701	0.06693
1304.74722	0.06680
1303.71743	0.06658
1302.68763	0.06629
1301.65784	0.06605
1300.62805	0.06589
1299.59826	0.06569
1298.56846	0.06547
1297.53867	0.06532
1296.50888	0.06515
1295.47909	0.06492
1294.44929	0.06465
1293.41950	0.06435
1292.38971	0.06414
1291.35991	0.06404
1290.33012	0.06390
1289.30033	0.06371
1288.27054	0.06356
1287.24074	0.06347
1286.21095	0.06342
1285.18116	0.06336
1284.15137	0.06328
1283.12157	0.06329
1282.09178	0.06342
1281.06199	0.06360
1280.03220	0.06380
1279.00240	0.06408
1277.97261	0.06448
1276.94282	0.06490
1275.91303	0.06538
1274.88323	0.06602
1273.85344	0.06672
1272.82365	0.06743
1271.79386	0.06828
1270.76406	0.06923
1269.73427	0.07019
1268.70448	0.07121
1267.67469	0.07228
1266.64489	0.07320
1265.61510	0.07388
1264.58531	0.07440
1263.55551	0.07483
1262.52572	0.07525
1261.49593	0.07562
1260.46614	0.07582
1259.43634	0.07584
1258.40655	0.07593
1257.37676	0.07609
1256.34697	0.07607
1255.31717	0.07587
1254.28738	0.07569
1253.25759	0.07565
1252.22780	0.07567
1251.19800	0.07569
1250.16821	0.07573
1249.13842	0.07589
1248.10863	0.07619
1247.07883	0.07651
1246.04904	0.07674
1245.01925	0.07693
1243.98946	0.07724
1242.95966	0.07777
1241.92987	0.07844
1240.90008	0.07912
1239.87029	0.07971
1238.84049	0.08026
1237.81070	0.08091
1236.78091	0.08168
1235.75111	0.08258
1234.72132	0.08356
1233.69153	0.08457
1232.66174	0.08550
1231.63194	0.08625
1230.60215	0.08685
1229.57236	0.08742
1228.54257	0.08791
1227.51277	0.08827
1226.48298	0.08845
1225.45319	0.08846
1224.42340	0.08837
1223.39360	0.08823
1222.36381	0.08797
1221.33402	0.08764
1220.30423	0.08736
1219.27443	0.08716
1218.24464	0.08692
1217.21485	0.08646
1216.18506	0.08578
1215.15526	0.08509
1214.12547	0.08443
1213.09568	0.08367
1212.06589	0.08274
1211.03609	0.08181
1210.00630	0.08110
1208.97651	0.08044
1207.94671	0.07946
1206.91692	0.07826
1205.88713	0.07718
1204.85734	0.07618
1203.82754	0.07516
1202.79775	0.07422
1201.76796	0.07333
1200.73817	0.07233
1199.70837	0.07131
1198.67858	0.07041
1197.64879	0.06954
1196.61900	0.06868
1195.58920	0.06789
1194.55941	0.06719
1193.52962	0.06662
1192.49983	0.06603
1191.47003	0.06538
1190.44024	0.06480
1189.41045	0.06427
1188.38066	0.06369
1187.35086	0.06317
1186.32107	0.06274
1185.29128	0.06234
1184.26149	0.06198
1183.23169	0.06169
1182.20190	0.06147
1181.17211	0.06134
1180.14231	0.06126
1179.11252	0.06123
1178.08273	0.06126
1177.05294	0.06145
1176.02314	0.06188
1174.99335	0.06249
1173.96356	0.06305
1172.93377	0.06358
1171.90397	0.06426
1170.87418	0.06487
1169.84439	0.06524
1168.81460	0.06555
1167.78480	0.06591
1166.75501	0.06615
1165.72522	0.06621
1164.69543	0.06637
1163.66563	0.06667
1162.63584	0.06675
1161.60605	0.06651
1160.57626	0.06634
1159.54646	0.06634
1158.51667	0.06633
1157.48688	0.06618
1156.45708	0.06581
1155.42729	0.06533
1154.39750	0.06486
1153.36771	0.06434
1152.33791	0.06379
1151.30812	0.06327
1150.27833	0.06281
1149.24854	0.06226
1148.21874	0.06160
1147.18895	0.06110
1146.15916	0.06066
1145.12937	0.06000
1144.09957	0.05922
1143.06978	0.05859
1142.03999	0.05813
1141.01020	0.05766
1139.98040	0.05713
1138.95061	0.05665
1137.92082	0.05628
1136.89103	0.05597
1135.86123	0.05560
1134.83144	0.05516
1133.80165	0.05479
1132.77186	0.05455
1131.74206	0.05434
1130.71227	0.05411
1129.68248	0.05383
1128.65268	0.05355
1127.62289	0.05339
1126.59310	0.05330
1125.56331	0.05309
1124.53351	0.05278
1123.50372	0.05255
1122.47393	0.05242
1121.44414	0.05230
1120.41434	0.05210
1119.38455	0.05195
1118.35476	0.05195
1117.32497	0.05195
1116.29517	0.05183
1115.26538	0.05160
1114.23559	0.05130
1113.20580	0.05106
1112.17600	0.05090
1111.14621	0.05073
1110.11642	0.05064
1109.08663	0.05075
1108.05683	0.05075
1107.02704	0.05054
1105.99725	0.05034
1104.96746	0.05025
1103.93766	0.05031
1102.90787	0.05040
1101.87808	0.05037
1100.84828	0.05018
1099.81849	0.05000
1098.78870	0.04987
1097.75891	0.04970
1096.72911	0.04944
1095.69932	0.04918
1094.66953	0.04897
1093.63974	0.04885
1092.60994	0.04884
1091.58015	0.04884
1090.55036	0.04883
1089.52057	0.04902
1088.49077	0.04940
1087.46098	0.04958
1086.43119	0.04961
1085.40140	0.04987
1084.37160	0.05029
1083.34181	0.05074
1082.31202	0.05114
1081.28223	0.05148
1080.25243	0.05187
1079.22264	0.05227
1078.19285	0.05276
1077.16306	0.05342
1076.13326	0.05413
1075.10347	0.05470
1074.07368	0.05523
1073.04388	0.05581
1072.01409	0.05629
1070.98430	0.05653
1069.95451	0.05665
1068.92471	0.05678
1067.89492	0.05699
1066.86513	0.05724
1065.83534	0.05738
1064.80554	0.05743
1063.77575	0.05753
1062.74596	0.05771
1061.71617	0.05791
1060.68637	0.05801
1059.65658	0.05794
1058.62679	0.05768
1057.59700	0.05740
1056.56720	0.05725
1055.53741	0.05711
1054.50762	0.05689
1053.47783	0.05656
1052.44803	0.05623
1051.41824	0.05604
1050.38845	0.05588
1049.35866	0.05562
1048.32886	0.05539
1047.29907	0.05526
1046.26928	0.05522
1045.23948	0.05526
1044.20969	0.05525
1043.17990	0.05512
1042.15011	0.05491
1041.12031	0.05456
1040.09052	0.05421
1039.06073	0.05398
1038.03094	0.05378
1037.00114	0.05356
1035.97135	0.05335
1034.94156	0.05306
1033.91177	0.05261
1032.88197	0.05217
1031.85218	0.05178
1030.82239	0.05136
1029.79260	0.05107
1028.76280	0.05089
1027.73301	0.05059
1026.70322	0.05017
1025.67343	0.04983
1024.64363	0.04962
1023.61384	0.04951
1022.58405	0.04934
1021.55425	0.04904
1020.52446	0.04864
1019.49467	0.04835
1018.46488	0.04840
1017.43508	0.04862
1016.40529	0.04877
1015.37550	0.04886
1014.34571	0.04880
1013.31591	0.04867
1012.28612	0.04863
1011.25633	0.04862
1010.22654	0.04854
1009.19674	0.04840
1008.16695	0.04829
1007.13716	0.04832
1006.10737	0.04854
1005.07757	0.04878
1004.04778	0.04890
1003.01799	0.04906
1001.98820	0.04944
1000.95840	0.04985
999.92861	0.05008
998.89882	0.05025
997.86903	0.05048
996.83923	0.05063
995.80944	0.05061
994.77965	0.05052
993.74985	0.05036
992.72006	0.05000
991.69027	0.04945
990.66048	0.04879
989.63068	0.04825
988.60089	0.04787
987.57110	0.04745
986.54131	0.04702
985.51151	0.04674
984.48172	0.04654
983.45193	0.04639
982.42214	0.04650
981.39234	0.04679
980.36255	0.04699
979.33276	0.04723
978.30297	0.04754
977.27317	0.04779
976.24338	0.04795
975.21359	0.04805
974.18380	0.04812
973.15400	0.04811
972.12421	0.04791
971.09442	0.04758
970.06463	0.04721
969.03483	0.04677
968.00504	0.04626
966.97525	0.04581
965.94545	0.04550
964.91566	0.04511
963.88587	0.04458
962.85608	0.04413
961.82628	0.04381
960.79649	0.04354
959.76670	0.04332
958.73691	0.04314
957.70711	0.04290
956.67732	0.04257
955.64753	0.04226
954.61774	0.04204
953.58794	0.04177
952.55815	0.04142
951.52836	0.04106
950.49857	0.04078
949.46877	0.04059
948.43898	0.04042
947.40919	0.04013
946.37940	0.03981
945.34960	0.03970
944.31981	0.03978
943.29002	0.03972
942.26023	0.03942
941.23043	0.03914
940.20064	0.03911
939.17085	0.03915
938.14105	0.03903
937.11126	0.03886
936.08147	0.03881
935.05168	0.03883
934.02188	0.03888
932.99209	0.03890
931.96230	0.03875
930.93251	0.03849
929.90271	0.03843
928.87292	0.03859
927.84313	0.03871
926.81334	0.03870
925.78354	0.03850
924.75375	0.03813
923.72396	0.03773
922.69417	0.03749
921.66437	0.03739
920.63458	0.03723
919.60479	0.03698
918.57500	0.03679
917.54520	0.03670
916.51541	0.03652
915.48562	0.03614
914.45582	0.03579
913.42603	0.03574
912.39624	0.03584
911.36645	0.03583
910.33665	0.03558
909.30686	0.03523
908.27707	0.03496
907.24728	0.03482
906.21748	0.03482
905.18769	0.03481
904.15790	0.03460
903.12811	0.03448
902.09831	0.03447
901.06852	0.03424
900.03873	0.03391
899.00894	0.03380
897.97914	0.03387
896.94935	0.03385
895.91956	0.03369
894.88977	0.03346
893.85997	0.03329
892.83018	0.03332
891.80039	0.03346
890.77060	0.03343
889.74080	0.03322
888.71101	0.03306
887.68122	0.03300
886.65142	0.03306
885.62163	0.03315
884.59184	0.03305
883.56205	0.03282
882.53225	0.03269
881.50246	0.03274
880.47267	0.03277
879.44288	0.03263
878.41308	0.03244
877.38329	0.03222
876.35350	0.03203
875.32371	0.03203
874.29391	0.03211
873.26412	0.03203
872.23433	0.03184
871.20454	0.03171
870.17474	0.03159
869.14495	0.03127
868.11516	0.03096
867.08537	0.03091
866.05557	0.03084
865.02578	0.03068
863.99599	0.03059
862.96620	0.03069
861.93640	0.03092
860.90661	0.03096
859.87682	0.03080
858.84702	0.03068
857.81723	0.03067
856.78744	0.03081
855.75765	0.03098
854.72785	0.03108
853.69806	0.03124
852.66827	0.03151
851.63848	0.03168
850.60868	0.03157
849.57889	0.03125
848.54910	0.03101
847.51931	0.03100
846.48951	0.03088
845.45972	0.03065
844.42993	0.03054
843.40014	0.03045
842.37034	0.03030
841.34055	0.03029
840.31076	0.03050
839.28097	0.03072
838.25117	0.03069
837.22138	0.03046
836.19159	0.03040
835.16180	0.03062
834.13200	0.03082
833.10221	0.03083
832.07242	0.03083
831.04262	0.03092
830.01283	0.03099
828.98304	0.03103
827.95325	0.03116
826.92345	0.03128
825.89366	0.03120
824.86387	0.03100
823.83408	0.03090
822.80428	0.03082
821.77449	0.03067
820.74470	0.03048
819.71491	0.03034
818.68511	0.03030
817.65532	0.03030
816.62553	0.03036
815.59574	0.03033
814.56594	0.03001
813.53615	0.02973
812.50636	0.02981
811.47657	0.03002
810.44677	0.03005
809.41698	0.02998
808.38719	0.02995
807.35740	0.02997
806.32760	0.02987
805.29781	0.02964
804.26802	0.02946
803.23822	0.02930
802.20843	0.02919
801.17864	0.02923
800.14885	0.02927
799.11905	0.02912
798.08926	0.02892
797.05947	0.02888
796.02968	0.02895
794.99988	0.02894
793.97009	0.02890
792.94030	0.02897
791.91051	0.02908
790.88071	0.02917
789.85092	0.02924
788.82113	0.02929
787.79134	0.02936
786.76154	0.02944
785.73175	0.02949
784.70196	0.02956
783.67217	0.02973
782.64237	0.02977
781.61258	0.02956
780.58279	0.02940
779.55299	0.02952
778.52320	0.02988
777.49341	0.03014
776.46362	0.03012
775.43382	0.03011
774.40403	0.03034
773.37424	0.03065
772.34445	0.03089
771.31465	0.03100
770.28486	0.03102
769.25507	0.03111
768.22528	0.03139
767.19548	0.03177
766.16569	0.03200
765.13590	0.03210
764.10611	0.03229
763.07631	0.03247
762.04652	0.03240
761.01673	0.03216
759.98694	0.03208
758.95714	0.03234
757.92735	0.03265
756.89756	0.03268
755.86777	0.03264
754.83797	0.03267
753.80818	0.03259
752.77839	0.03259
751.74859	0.03281
750.71880	0.03309
749.68901	0.03336
748.65922	0.03366
747.62942	0.03387
746.59963	0.03385
745.56984	0.03380
744.54005	0.03398
743.51025	0.03445
742.48046	0.03500
741.45067	0.03539
740.42088	0.03560
739.39108	0.03581
738.36129	0.03611
737.33150	0.03646
736.30171	0.03686
735.27191	0.03730
734.24212	0.03776
733.21233	0.03816
732.18254	0.03837
731.15274	0.03865
730.12295	0.03925
729.09316	0.03996
728.06337	0.04041
727.03357	0.04058
726.00378	0.04073
724.97399	0.04108
723.94419	0.04160
722.91440	0.04216
721.88461	0.04262
720.85482	0.04289
719.82502	0.04317
718.79523	0.04341
717.76544	0.04346
716.73565	0.04344
715.70585	0.04361
714.67606	0.04399
713.64627	0.04440
712.61648	0.04473
711.58668	0.04502
710.55689	0.04535
709.52710	0.04568
708.49731	0.04580
707.46751	0.04581
706.43772	0.04603
705.40793	0.04646
704.37814	0.04685
703.34834	0.04719
702.31855	0.04755
701.28876	0.04782
700.25897	0.04801
699.22917	0.04833
698.19938	0.04868
697.16959	0.04882
696.13979	0.04881
695.11000	0.04876
694.08021	0.04880
693.05042	0.04905
692.02062	0.04939
690.99083	0.04962
689.96104	0.04968
688.93125	0.04961
687.90145	0.04950
686.87166	0.04945
685.84187	0.04954
684.81208	0.04970
683.78228	0.04981
682.75249	0.04996
681.72270	0.05013
680.69291	0.05017
679.66311	0.05011
678.63332	0.04991
677.60353	0.04959
676.57374	0.04932
675.54394	0.04903
674.51415	0.04878
673.48436	0.04874
672.45456	0.04881
671.42477	0.04895
670.39498	0.04970
669.36519	0.05023
668.33539	0.04839
667.30560	0.04865
666.27581	0.05038
665.24602	0.04950
664.21622	0.04868
663.18643	0.04844
662.15664	0.04848
661.12685	0.04872
660.09705	0.04902
659.06726	0.04920
658.03747	0.04923
657.00768	0.04920
655.97788	0.04926
654.94809	0.04949
653.91830	0.04967
652.88851	0.04977
651.85871	0.04992
650.82892	0.05009
649.79913	0.05022
648.76934	0.05035
647.73954	0.05051
646.70975	0.05072
645.67996	0.05107
644.65016	0.05133
643.62037	0.05137
642.59058	0.05129
641.56079	0.05125
640.53099	0.05142
639.50120	0.05172
638.47141	0.05182
637.44162	0.05167
636.41182	0.05152
635.38203	0.05156
634.35224	0.05164
633.32245	0.05149
632.29265	0.05134
631.26286	0.05146
630.23307	0.05176
629.20328	0.05196
628.17348	0.05187
627.14369	0.05167
626.11390	0.05164
625.08411	0.05171
624.05431	0.05183
623.02452	0.05188
621.99473	0.05168
620.96494	0.05151
619.93514	0.05156
618.90535	0.05163
617.87556	0.05146
616.84576	0.05113
615.81597	0.05108
614.78618	0.05127
613.75639	0.05141
612.72659	0.05159
611.69680	0.05170
610.66701	0.05161
609.63722	0.05150
608.60742	0.05134
607.57763	0.05097
606.54784	0.05048
605.51805	0.05004
604.48825	0.04959
603.45846	0.04927
602.42867	0.04917
601.39888	0.04901
600.36908	0.04873
599.33929	0.04863
598.30950	0.04861
597.27971	0.04832
596.24991	0.04776
595.22012	0.04718
594.19033	0.04673
593.16054	0.04650
592.13074	0.04638
591.10095	0.04598
590.07116	0.04546
589.04136	0.04529
588.01157	0.04538
586.98178	0.04537
585.95199	0.04516
584.92219	0.04490
583.89240	0.04483
582.86261	0.04484
581.83282	0.04473
580.80302	0.04445
579.77323	0.04406
578.74344	0.04379
577.71365	0.04382
576.68385	0.04400
575.65406	0.04400
574.62427	0.04380
573.59448	0.04363
572.56468	0.04340
571.53489	0.04315
570.50510	0.04325
569.47531	0.04368
568.44551	0.04398
567.41572	0.04405
566.38593	0.04403
565.35614	0.04408
564.32634	0.04433
563.29655	0.04471
562.26676	0.04529
561.23696	0.04595
560.20717	0.04652
559.17738	0.04730
558.14759	0.04829
557.11779	0.04902
556.08800	0.04946
555.05821	0.04998
554.02842	0.05054
552.99862	0.05085
551.96883	0.05109
550.93904	0.05144
549.90925	0.05175
548.87945	0.05179
547.84966	0.05159
546.81987	0.05138
545.79008	0.05133
544.76028	0.05151
543.73049	0.05164
542.70070	0.05133
541.67091	0.05076
540.64111	0.05029
539.61132	0.04980
538.58153	0.04921
537.55173	0.04880
536.52194	0.04848
535.49215	0.04808
534.46236	0.04780
533.43256	0.04757
532.40277	0.04729
531.37298	0.04717
530.34319	0.04699
529.31339	0.04653
528.28360	0.04621
527.25381	0.04625
526.22402	0.04616
525.19422	0.04572
524.16443	0.04521
523.13464	0.04482
522.10485	0.04443
521.07505	0.04408
520.04526	0.04412
519.01547	0.04443
517.98568	0.04452
516.95588	0.04416
515.92609	0.04367
514.89630	0.04352
513.86651	0.04367
512.83671	0.04351
511.80692	0.04299
510.77713	0.04259
509.74733	0.04245
508.71754	0.04231
507.68775	0.04197
506.65796	0.04165
505.62816	0.04162
504.59837	0.04162
503.56858	0.04144
502.53879	0.04105
501.50899	0.04052
500.47920	0.04016
499.44941	0.04017
498.41962	0.04023
497.38982	0.04012
496.36003	0.03996
495.33024	0.03970
494.30045	0.03950
493.27065	0.03965
492.24086	0.03987
491.21107	0.03980
490.18128	0.03971
489.15148	0.03977
488.12169	0.03967
487.09190	0.03933
486.06211	0.03901
485.03231	0.03892
484.00252	0.03890
482.97273	0.03872
481.94293	0.03842
480.91314	0.03806
479.88335	0.03756
478.85356	0.03703
477.82376	0.03691
476.79397	0.03725
475.76418	0.03729
474.73439	0.03665
473.70459	0.03605
472.67480	0.03620
471.64501	0.03669
470.61522	0.03663
469.58542	0.03599
468.55563	0.03529
467.52584	0.03485
466.49605	0.03471
465.46625	0.03474
464.43646	0.03463
463.40667	0.03440
462.37688	0.03449
461.34708	0.03464
460.31729	0.03418
459.28750	0.03343
458.25771	0.03315
457.22791	0.03338
456.19812	0.03368
455.16833	0.03377
454.13853	0.03367
453.10874	0.03368
452.07895	0.03387
451.04916	0.03401
450.01936	0.03389
448.98957	0.03342
447.95978	0.03279
446.92999	0.03240
445.90019	0.03245
444.87040	0.03299
443.84061	0.03355
442.81082	0.03324
441.78102	0.03216
440.75123	0.03159
439.72144	0.03196
438.69165	0.03258
437.66185	0.03282
436.63206	0.03258
435.60227	0.03217
434.57248	0.03196
433.54268	0.03196
432.51289	0.03203
431.48310	0.03237
430.45330	0.03297
429.42351	0.03325
428.39372	0.03321
427.36393	0.03348
426.33413	0.03406
425.30434	0.03438
424.27455	0.03425
423.24476	0.03402
422.21496	0.03382
421.18517	0.03363
420.15538	0.03338
419.12559	0.03273
418.09579	0.03167
417.06600	0.03096
416.03621	0.03090
415.00642	0.03115
413.97662	0.03142
412.94683	0.03152
411.91704	0.03127
410.88725	0.03068
409.85745	0.03016
408.82766	0.03000
407.79787	0.02991
406.76808	0.02965
405.73828	0.02945
404.70849	0.02947
403.67870	0.02951
402.64890	0.02931
401.61911	0.02913
400.58932	0.02901
399.55953	0.02849
