3997.65486	0.04267
3995.59527	0.04295
3993.53569	0.04330
3991.47610	0.04319
3989.41652	0.04283
3987.35693	0.04249
3985.29735	0.04229
3983.23776	0.04256
3981.17817	0.04295
3979.11859	0.04315
3977.05900	0.04312
3974.99942	0.04254
3972.93983	0.04184
3970.88025	0.04168
3968.82066	0.04193
3966.76108	0.04226
3964.70149	0.04227
3962.64191	0.04209
3960.58232	0.04246
3958.52274	0.04322
3956.46315	0.04318
3954.40357	0.04227
3952.34398	0.04167
3950.28440	0.04181
3948.22481	0.04218
3946.16523	0.04244
3944.10564	0.04232
3942.04606	0.04175
3939.98647	0.04121
3937.92689	0.04095
3935.86730	0.04072
3933.80772	0.04055
3931.74813	0.04070
3929.68855	0.04109
3927.62896	0.04143
3925.56937	0.04169
3923.50979	0.04204
3921.45020	0.04248
3919.39062	0.04270
3917.33103	0.04260
3915.27145	0.04222
3913.21186	0.04152
3911.15228	0.04078
3909.09269	0.04047
3907.03311	0.04070
3904.97352	0.04099
3902.91394	0.04067
3900.85435	0.04014
3898.79477	0.04039
3896.73518	0.04091
3894.67560	0.04100
3892.61601	0.04085
3890.55643	0.04062
3888.49684	0.04045
3886.43726	0.04036
3884.37767	0.04017
3882.31809	0.04019
3880.25850	0.04052
3878.19892	0.04064
3876.13933	0.04024
3874.07974	0.03956
3872.02016	0.03900
3869.96057	0.03914
3867.90099	0.03993
3865.84140	0.04028
3863.78182	0.03964
3861.72223	0.03882
3859.66265	0.03867
3857.60306	0.03880
3855.54348	0.03858
3853.48389	0.03838
3851.42431	0.03853
3849.36472	0.03888
3847.30514	0.03936
3845.24555	0.03949
3843.18597	0.03913
3841.12638	0.03890
3839.06680	0.03895
3837.00721	0.03889
3834.94763	0.03870
3832.88804	0.03858
3830.82846	0.03883
3828.76887	0.03931
3826.70929	0.03923
3824.64970	0.03863
3822.59012	0.03838
3820.53053	0.03868
3818.47094	0.03914
3816.41136	0.03948
3814.35177	0.03945
3812.29219	0.03910
3810.23260	0.03880
3808.17302	0.03866
3806.11343	0.03847
3804.05385	0.03795
3801.99426	0.03739
3799.93468	0.03758
3797.87509	0.03832
3795.81551	0.03881
3793.75592	0.03878
3791.69634	0.03861
3789.63675	0.03861
3787.57717	0.03864
3785.51758	0.03861
3783.45800	0.03877
3781.39841	0.03915
3779.33883	0.03950
3777.27924	0.03954
3775.21966	0.03916
3773.16007	0.03845
3771.10049	0.03782
3769.04090	0.03775
3766.98132	0.03808
3764.92173	0.03806
3762.86214	0.03741
3760.80256	0.03665
3758.74297	0.03656
3756.68339	0.03705
3754.62380	0.03725
3752.56422	0.03690
3750.50463	0.03674
3748.44505	0.03717
3746.38546	0.03708
3744.32588	0.03603
3742.26629	0.03496
3740.20671	0.03450
3738.14712	0.03461
3736.08754	0.03542
3734.02795	0.03648
3731.96837	0.03675
3729.90878	0.03633
3727.84920	0.03594
3725.78961	0.03592
3723.73003	0.03646
3721.67044	0.03687
3719.61086	0.03642
3717.55127	0.03556
3715.49169	0.03475
3713.43210	0.03412
3711.37251	0.03431
3709.31293	0.03503
3707.25334	0.03546
3705.19376	0.03540
3703.13417	0.03559
3701.07459	0.03601
3699.01500	0.03618
3696.95542	0.03612
3694.89583	0.03583
3692.83625	0.03546
3690.77666	0.03530
3688.71708	0.03505
3686.65749	0.03486
3684.59791	0.03515
3682.53832	0.03548
3680.47874	0.03548
3678.41915	0.03530
3676.35957	0.03505
3674.29998	0.03471
3672.24040	0.03472
3670.18081	0.03519
3668.12123	0.03568
3666.06164	0.03590
3664.00206	0.03606
3661.94247	0.03623
3659.88289	0.03631
3657.82330	0.03608
3655.76371	0.03567
3653.70413	0.03562
3651.64454	0.03610
3649.58496	0.03686
3647.52537	0.03741
3645.46579	0.03745
3643.40620	0.03727
3641.34662	0.03684
3639.28703	0.03616
3637.22745	0.03567
3635.16786	0.03549
3633.10828	0.03540
3631.04869	0.03522
3628.98911	0.03499
3626.92952	0.03503
3624.86994	0.03532
3622.81035	0.03538
3620.75077	0.03511
3618.69118	0.03498
3616.63160	0.03533
3614.57201	0.03602
3612.51243	0.03663
3610.45284	0.03686
3608.39326	0.03701
3606.33367	0.03736
3604.27408	0.03776
3602.21450	0.03764
3600.15491	0.03699
3598.09533	0.03661
3596.03574	0.03693
3593.97616	0.03780
3591.91657	0.03878
3589.85699	0.03890
3587.79740	0.03843
3585.73782	0.03824
3583.67823	0.03856
3581.61865	0.03876
3579.55906	0.03868
3577.49948	0.03881
3575.43989	0.03928
3573.38031	0.03977
3571.32072	0.03978
3569.26114	0.03911
3567.20155	0.03844
3565.14197	0.03849
3563.08238	0.03907
3561.02280	0.03964
3558.96321	0.03994
3556.90363	0.04002
3554.84404	0.04012
3552.78446	0.04047
3550.72487	0.04086
3548.66528	0.04069
3546.60570	0.04020
3544.54611	0.04018
3542.48653	0.04067
3540.42694	0.04121
3538.36736	0.04159
3536.30777	0.04203
3534.24819	0.04273
3532.18860	0.04310
3530.12902	0.04256
3528.06943	0.04168
3526.00985	0.04165
3523.95026	0.04235
3521.89068	0.04308
3519.83109	0.04367
3517.77151	0.04402
3515.71192	0.04411
3513.65234	0.04418
3511.59275	0.04440
3509.53317	0.04448
3507.47358	0.04426
3505.41400	0.04411
3503.35441	0.04410
3501.29483	0.04394
3499.23524	0.04382
3497.17565	0.04389
3495.11607	0.04420
3493.05648	0.04474
3490.99690	0.04519
3488.93731	0.04535
3486.87773	0.04538
3484.81814	0.04539
3482.75856	0.04546
3480.69897	0.04565
3478.63939	0.04569
3476.57980	0.04544
3474.52022	0.04525
3472.46063	0.04551
3470.40105	0.04596
3468.34146	0.04613
3466.28188	0.04599
3464.22229	0.04584
3462.16271	0.04604
3460.10312	0.04655
3458.04354	0.04694
3455.98395	0.04708
3453.92437	0.04707
3451.86478	0.04693
3449.80520	0.04684
3447.74561	0.04686
3445.68603	0.04673
3443.62644	0.04637
3441.56685	0.04620
3439.50727	0.04662
3437.44768	0.04736
3435.38810	0.04777
3433.32851	0.04764
3431.26893	0.04743
3429.20934	0.04761
3427.14976	0.04788
3425.09017	0.04802
3423.03059	0.04793
3420.97100	0.04759
3418.91142	0.04772
3416.85183	0.04842
3414.79225	0.04882
3412.73266	0.04872
3410.67308	0.04863
3408.61349	0.04908
3406.55391	0.04963
3404.49432	0.04958
3402.43474	0.04929
3400.37515	0.04918
3398.31557	0.04908
3396.25598	0.04916
3394.19640	0.04960
3392.13681	0.05008
3390.07723	0.05032
3388.01764	0.05070
3385.95805	0.05151
3383.89847	0.05203
3381.83888	0.05201
3379.77930	0.05202
3377.71971	0.05201
3375.66013	0.05174
3373.60054	0.05176
3371.54096	0.05237
3369.48137	0.05284
3367.42179	0.05280
3365.36220	0.05288
3363.30262	0.05331
3361.24303	0.05358
3359.18345	0.05383
3357.12386	0.05424
3355.06428	0.05459
3353.00469	0.05490
3350.94511	0.05513
3348.88552	0.05539
3346.82594	0.05612
3344.76635	0.05708
3342.70677	0.05786
3340.64718	0.05879
3338.58760	0.05979
3336.52801	0.06058
3334.46842	0.06132
3332.40884	0.06231
3330.34925	0.06365
3328.28967	0.06513
3326.23008	0.06652
3324.17050	0.06776
3322.11091	0.06890
3320.05133	0.07019
3317.99174	0.07187
3315.93216	0.07383
3313.87257	0.07582
3311.81299	0.07783
3309.75340	0.07990
3307.69382	0.08215
3305.63423	0.08457
3303.57465	0.08689
3301.51506	0.08919
3299.45548	0.09175
3297.39589	0.09416
3295.33631	0.09608
3293.27672	0.09825
3291.21714	0.10075
3289.15755	0.10250
3287.09797	0.10352
3285.03838	0.10449
3282.97880	0.10567
3280.91921	0.10698
3278.85962	0.10796
3276.80004	0.10872
3274.74045	0.10942
3272.68087	0.10959
3270.62128	0.10915
3268.56170	0.10846
3266.50211	0.10783
3264.44253	0.10688
3262.38294	0.10525
3260.32336	0.10379
3258.26377	0.10291
3256.20419	0.10191
3254.14460	0.10073
3252.08502	0.09982
3250.02543	0.09911
3247.96585	0.09816
3245.90626	0.09664
3243.84668	0.09486
3241.78709	0.09342
3239.72751	0.09251
3237.66792	0.09179
3235.60834	0.09094
3233.54875	0.08991
3231.48917	0.08872
3229.42958	0.08774
3227.36999	0.08717
3225.31041	0.08655
3223.25082	0.08575
3221.19124	0.08514
3219.13165	0.08453
3217.07207	0.08363
3215.01248	0.08280
3212.95290	0.08213
3210.89331	0.08128
3208.83373	0.08036
3206.77414	0.07958
3204.71456	0.07870
3202.65497	0.07791
3200.59539	0.07745
3198.53580	0.07695
3196.47622	0.07628
3194.41663	0.07573
3192.35705	0.07533
3190.29746	0.07497
3188.23788	0.07453
3186.17829	0.07385
3184.11871	0.07306
3182.05912	0.07219
3179.99954	0.07125
3177.93995	0.07058
3175.88037	0.07028
3173.82078	0.07014
3171.76119	0.06982
3169.70161	0.06927
3167.64202	0.06874
3165.58244	0.06825
3163.52285	0.06774
3161.46327	0.06723
3159.40368	0.06657
3157.34410	0.06581
3155.28451	0.06520
3153.22493	0.06477
3151.16534	0.06423
3149.10576	0.06365
3147.04617	0.06336
3144.98659	0.06334
3142.92700	0.06332
3140.86742	0.06291
3138.80783	0.06204
3136.74825	0.06132
3134.68866	0.06101
3132.62908	0.06086
3130.56949	0.06081
3128.50991	0.06067
3126.45032	0.06052
3124.39074	0.06073
3122.33115	0.06109
3120.27156	0.06118
3118.21198	0.06090
3116.15239	0.06041
3114.09281	0.06030
3112.03322	0.06058
3109.97364	0.06083
3107.91405	0.06084
3105.85447	0.06054
3103.79488	0.06019
3101.73530	0.06001
3099.67571	0.05998
3097.61613	0.06009
3095.55654	0.06018
3093.49696	0.06028
3091.43737	0.06067
3089.37779	0.06114
3087.31820	0.06115
3085.25862	0.06082
3083.19903	0.06096
3081.13945	0.06157
3079.07986	0.06191
3077.02028	0.06210
3074.96069	0.06235
3072.90111	0.06251
3070.84152	0.06258
3068.78194	0.06249
3066.72235	0.06233
3064.66276	0.06219
3062.60318	0.06176
3060.54359	0.06121
3058.48401	0.06115
3056.42442	0.06124
3054.36484	0.06097
3052.30525	0.06038
3050.24567	0.05978
3048.18608	0.05933
3046.12650	0.05895
3044.06691	0.05880
3042.00733	0.05892
3039.94774	0.05885
3037.88816	0.05843
3035.82857	0.05789
3033.76899	0.05744
3031.70940	0.05715
3029.64982	0.05678
3027.59023	0.05626
3025.53065	0.05581
3023.47106	0.05542
3021.41148	0.05504
3019.35189	0.05468
3017.29231	0.05430
3015.23272	0.05411
3013.17313	0.05420
3011.11355	0.05434
3009.05396	0.05443
3006.99438	0.05434
3004.93479	0.05423
3002.87521	0.05426
3000.81562	0.05422
2998.75604	0.05417
2996.69645	0.05426
2994.63687	0.05437
2992.57728	0.05459
2990.51770	0.05501
2988.45811	0.05554
2986.39853	0.05602
2984.33894	0.05656
2982.27936	0.05714
2980.21977	0.05754
2978.16019	0.05778
2976.10060	0.05793
2974.04102	0.05797
2971.98143	0.05801
2969.92185	0.05793
2967.86226	0.05767
2965.80268	0.05745
2963.74309	0.05727
2961.68351	0.05690
2959.62392	0.05647
2957.56433	0.05628
2955.50475	0.05619
2953.44516	0.05584
2951.38558	0.05538
2949.32599	0.05547
2947.26641	0.05590
2945.20682	0.05610
2943.14724	0.05631
2941.08765	0.05678
2939.02807	0.05744
2936.96848	0.05822
2934.90890	0.05885
2932.84931	0.05920
2930.78973	0.05952
2928.73014	0.05981
2926.67056	0.05977
2924.61097	0.05960
2922.55139	0.05983
2920.49180	0.06015
2918.43222	0.05997
2916.37263	0.05937
2914.31305	0.05860
2912.25346	0.05797
2910.19388	0.05753
2908.13429	0.05691
2906.07471	0.05620
2904.01512	0.05575
2901.95553	0.05542
2899.89595	0.05505
2897.83636	0.05479
2895.77678	0.05470
2893.71719	0.05449
2891.65761	0.05406
2889.59802	0.05366
2887.53844	0.05360
2885.47885	0.05373
2883.41927	0.05380
2881.35968	0.05373
2879.30010	0.05357
2877.24051	0.05346
2875.18093	0.05345
2873.12134	0.05343
2871.06176	0.05331
2869.00217	0.05325
2866.94259	0.05341
2864.88300	0.05357
2862.82342	0.05358
2860.76383	0.05349
2858.70425	0.05322
2856.64466	0.05283
2854.58508	0.05272
2852.52549	0.05294
2850.46590	0.05309
2848.40632	0.05295
2846.34673	0.05250
2844.28715	0.05177
2842.22756	0.05104
2840.16798	0.05060
2838.10839	0.05032
2836.04881	0.04993
2833.98922	0.04961
2831.92964	0.04933
2829.87005	0.04895
2827.81047	0.04865
2825.75088	0.04856
2823.69130	0.04870
2821.63171	0.04887
2819.57213	0.04891
2817.51254	0.04884
2815.45296	0.04863
2813.39337	0.04841
2811.33379	0.04840
2809.27420	0.04847
2807.21462	0.04837
2805.15503	0.04813
2803.09545	0.04800
2801.03586	0.04800
2798.97628	0.04801
2796.91669	0.04797
2794.85710	0.04798
2792.79752	0.04796
2790.73793	0.04766
2788.67835	0.04756
2786.61876	0.04777
2784.55918	0.04766
2782.49959	0.04734
2780.44001	0.04729
2778.38042	0.04743
2776.32084	0.04738
2774.26125	0.04707
2772.20167	0.04688
2770.14208	0.04688
2768.08250	0.04682
2766.02291	0.04668
2763.96333	0.04658
2761.90374	0.04655
2759.84416	0.04637
2757.78457	0.04606
2755.72499	0.04598
2753.66540	0.04613
2751.60582	0.04612
2749.54623	0.04588
2747.48665	0.04570
2745.42706	0.04565
2743.36747	0.04568
2741.30789	0.04557
2739.24830	0.04522
2737.18872	0.04496
2735.12913	0.04496
2733.06955	0.04511
2731.00996	0.04517
2728.95038	0.04508
2726.89079	0.04494
2724.83121	0.04482
2722.77162	0.04454
2720.71204	0.04406
2718.65245	0.04377
2716.59287	0.04385
2714.53328	0.04395
2712.47370	0.04385
2710.41411	0.04376
2708.35453	0.04384
2706.29494	0.04398
2704.23536	0.04386
2702.17577	0.04357
2700.11619	0.04347
2698.05660	0.04344
2695.99702	0.04339
2693.93743	0.04340
2691.87785	0.04333
2689.81826	0.04323
2687.75867	0.04327
2685.69909	0.04338
2683.63950	0.04348
2681.57992	0.04333
2679.52033	0.04293
2677.46075	0.04268
2675.40116	0.04251
2673.34158	0.04223
2671.28199	0.04195
2669.22241	0.04189
2667.16282	0.04214
2665.10324	0.04241
2663.04365	0.04252
2660.98407	0.04243
2658.92448	0.04234
2656.86490	0.04247
2654.80531	0.04251
2652.74573	0.04229
2650.68614	0.04206
2648.62656	0.04189
2646.56697	0.04174
2644.50739	0.04170
2642.44780	0.04163
2640.38822	0.04154
2638.32863	0.04153
2636.26904	0.04149
2634.20946	0.04130
2632.14987	0.04106
2630.09029	0.04104
2628.03070	0.04117
2625.97112	0.04108
2623.91153	0.04073
2621.85195	0.04047
2619.79236	0.04030
2617.73278	0.04019
2615.67319	0.04030
2613.61361	0.04034
2611.55402	0.04008
2609.49444	0.03988
2607.43485	0.03991
2605.37527	0.03985
2603.31568	0.03975
2601.25610	0.03984
2599.19651	0.03995
2597.13693	0.04007
2595.07734	0.04027
2593.01776	0.04006
2590.95817	0.03931
2588.89859	0.03879
2586.83900	0.03884
2584.77942	0.03909
2582.71983	0.03916
2580.66024	0.03881
2578.60066	0.03827
2576.54107	0.03810
2574.48149	0.03814
2572.42190	0.03818
2570.36232	0.03859
2568.30273	0.03898
2566.24315	0.03871
2564.18356	0.03792
2562.12398	0.03736
2560.06439	0.03762
2558.00481	0.03794
2555.94522	0.03747
2553.88564	0.03689
2551.82605	0.03698
2549.76647	0.03732
2547.70688	0.03725
2545.64730	0.03692
2543.58771	0.03654
2541.52813	0.03616
2539.46854	0.03618
2537.40896	0.03665
2535.34937	0.03710
2533.28979	0.03729
2531.23020	0.03706
2529.17062	0.03659
2527.11103	0.03643
2525.05144	0.03660
2522.99186	0.03680
2520.93227	0.03688
2518.87269	0.03671
2516.81310	0.03626
2514.75352	0.03589
2512.69393	0.03583
2510.63435	0.03574
2508.57476	0.03536
2506.51518	0.03508
2504.45559	0.03523
2502.39601	0.03562
2500.33642	0.03586
2498.27684	0.03587
2496.21725	0.03587
2494.15767	0.03580
2492.09808	0.03575
2490.03850	0.03609
2487.97891	0.03657
2485.91933	0.03644
2483.85974	0.03577
2481.80016	0.03522
2479.74057	0.03503
2477.68099	0.03524
2475.62140	0.03549
2473.56181	0.03534
2471.50223	0.03514
2469.44264	0.03517
2467.38306	0.03529
2465.32347	0.03554
2463.26389	0.03589
2461.20430	0.03595
2459.14472	0.03564
2457.08513	0.03525
2455.02555	0.03505
2452.96596	0.03508
2450.90638	0.03506
2448.84679	0.03497
2446.78721	0.03503
2444.72762	0.03494
2442.66804	0.03447
2440.60845	0.03420
2438.54887	0.03437
2436.48928	0.03444
2434.42970	0.03409
2432.37011	0.03370
2430.31053	0.03379
2428.25094	0.03411
2426.19136	0.03397
2424.13177	0.03365
2422.07219	0.03400
2420.01260	0.03450
2417.95301	0.03413
2415.89343	0.03345
2413.83384	0.03323
2411.77426	0.03328
2409.71467	0.03339
2407.65509	0.03351
2405.59550	0.03370
2403.53592	0.03387
2401.47633	0.03378
2399.41675	0.03352
2397.35716	0.03359
2395.29758	0.03367
2393.23799	0.03354
2391.17841	0.03333
2389.11882	0.03320
2387.05924	0.03330
2384.99965	0.03367
2382.94007	0.03403
2380.88048	0.03383
2378.82090	0.03319
2376.76131	0.03307
2374.70173	0.03118
2372.64214	0.03016
2370.58256	0.03149
2368.52297	0.03145
2366.46338	0.03155
2364.40380	0.02976
2362.34421	0.02818
2360.28463	0.03050
2358.22504	0.02970
2356.16546	0.03044
2354.10587	0.03118
2352.04629	0.03132
2349.98670	0.03492
2347.92712	0.03282
2345.86753	0.03115
2343.80795	0.03323
2341.74836	0.02949
2339.68878	0.02684
2337.62919	0.02654
2335.56961	0.02993
2333.51002	0.03746
2331.45044	0.03866
2329.39085	0.03745
2327.33127	0.03105
2325.27168	0.02602
2323.21210	0.02324
2321.15251	0.02333
2319.09293	0.02488
2317.03334	0.02565
2314.97376	0.02722
2312.91417	0.02727
2310.85458	0.02746
2308.79500	0.02844
2306.73541	0.02913
2304.67583	0.03033
2302.61624	0.03142
2300.55666	0.03202
2298.49707	0.03210
2296.43749	0.03229
2294.37790	0.03191
2292.31832	0.03166
2290.25873	0.03175
2288.19915	0.03175
2286.13956	0.03128
2284.07998	0.03065
2282.02039	0.03007
2279.96081	0.02988
2277.90122	0.02980
2275.84164	0.02966
2273.78205	0.02985
2271.72247	0.03015
2269.66288	0.03037
2267.60330	0.03022
2265.54371	0.02986
2263.48413	0.02957
2261.42454	0.02951
2259.36495	0.02919
2257.30537	0.02841
2255.24578	0.02783
2253.18620	0.02813
2251.12661	0.02903
2249.06703	0.02975
2247.00744	0.02950
2244.94786	0.02837
2242.88827	0.02761
2240.82869	0.02749
2238.76910	0.02765
2236.70952	0.02792
2234.64993	0.02844
2232.59035	0.02935
2230.53076	0.02969
2228.47118	0.02880
2226.41159	0.02758
2224.35201	0.02704
2222.29242	0.02699
2220.23284	0.02681
2218.17325	0.02706
2216.11367	0.02762
2214.05408	0.02721
2211.99450	0.02629
2209.93491	0.02638
2207.87533	0.02689
2205.81574	0.02635
2203.75615	0.02530
2201.69657	0.02487
2199.63698	0.02512
2197.57740	0.02549
2195.51781	0.02536
2193.45823	0.02531
2191.39864	0.02556
2189.33906	0.02527
2187.27947	0.02487
2185.21989	0.02506
2183.16030	0.02555
2181.10072	0.02559
2179.04113	0.02507
2176.98155	0.02485
2174.92196	0.02498
2172.86238	0.02507
2170.80279	0.02500
2168.74321	0.02467
2166.68362	0.02455
2164.62404	0.02465
2162.56445	0.02481
2160.50487	0.02433
2158.44528	0.02251
2156.38570	0.02147
2154.32611	0.02235
2152.26652	0.02351
2150.20694	0.02327
2148.14735	0.02232
2146.08777	0.02249
2144.02818	0.02321
2141.96860	0.02332
2139.90901	0.02311
2137.84943	0.02322
2135.78984	0.02337
2133.73026	0.02300
2131.67067	0.02275
2129.61109	0.02314
2127.55150	0.02363
2125.49192	0.02414
2123.43233	0.02492
2121.37275	0.02535
2119.31316	0.02518
2117.25358	0.02505
2115.19399	0.02517
2113.13441	0.02532
2111.07482	0.02554
2109.01524	0.02564
2106.95565	0.02551
2104.89607	0.02539
2102.83648	0.02515
2100.77690	0.02503
2098.71731	0.02536
2096.65772	0.02566
2094.59814	0.02535
2092.53855	0.02491
2090.47897	0.02516
2088.41938	0.02584
2086.35980	0.02592
2084.30021	0.02503
2082.24063	0.02403
2080.18104	0.02399
2078.12146	0.02443
2076.06187	0.02433
2074.00229	0.02421
2071.94270	0.02432
2069.88312	0.02413
2067.82353	0.02373
2065.76395	0.02321
2063.70436	0.02269
2061.64478	0.02265
2059.58519	0.02313
2057.52561	0.02372
2055.46602	0.02416
2053.40644	0.02412
2051.34685	0.02316
2049.28727	0.02183
2047.22768	0.02129
2045.16810	0.02146
2043.10851	0.02140
2041.04892	0.02138
2038.98934	0.02221
2036.92975	0.02279
2034.87017	0.02194
2032.81058	0.02004
2030.75100	0.01823
2028.69141	0.01815
2026.63183	0.01998
2024.57224	0.02223
2022.51266	0.02341
2020.45307	0.02301
2018.39349	0.02128
2016.33390	0.01919
2014.27432	0.01834
2012.21473	0.01840
2010.15515	0.01765
2008.09556	0.01646
2006.03598	0.01655
2003.97639	0.01757
2001.91681	0.01839
1999.85722	0.01959
1997.79764	0.02077
1995.73805	0.02070
1993.67847	0.02091
1991.61888	0.02231
1989.55929	0.02296
1987.49971	0.02183
1985.44012	0.02032
1983.38054	0.01978
1981.32095	0.01935
1979.26137	0.01799
1977.20178	0.01684
1975.14220	0.01741
1973.08261	0.01871
1971.02303	0.01924
1968.96344	0.01905
1966.90386	0.01875
1964.84427	0.01885
1962.78469	0.01871
1960.72510	0.01785
1958.66552	0.01703
1956.60593	0.01704
1954.54635	0.01800
1952.48676	0.01955
1950.42718	0.02056
1948.36759	0.02057
1946.30801	0.02022
1944.24842	0.01944
1942.18884	0.01854
1940.12925	0.01871
1938.06967	0.01964
1936.01008	0.02027
1933.95049	0.02038
1931.89091	0.02043
1929.83132	0.02060
1927.77174	0.02031
1925.71215	0.01960
1923.65257	0.01932
1921.59298	0.01956
1919.53340	0.01959
1917.47381	0.01934
1915.41423	0.01932
1913.35464	0.01965
1911.29506	0.02023
1909.23547	0.02070
1907.17589	0.02062
1905.11630	0.02012
1903.05672	0.01970
1900.99713	0.01960
1898.93755	0.01968
1896.87796	0.01975
1894.81838	0.01983
1892.75879	0.01998
1890.69921	0.01991
1888.63962	0.01947
1886.58004	0.01910
1884.52045	0.01888
1882.46086	0.01858
1880.40128	0.01841
1878.34169	0.01848
1876.28211	0.01860
1874.22252	0.01870
1872.16294	0.01870
1870.10335	0.01849
1868.04377	0.01848
1865.98418	0.01867
1863.92460	0.01853
1861.86501	0.01825
1859.80543	0.01826
1857.74584	0.01836
1855.68626	0.01817
1853.62667	0.01767
1851.56709	0.01731
1849.50750	0.01734
1847.44792	0.01760
1845.38833	0.01776
1843.32875	0.01777
1841.26916	0.01791
1839.20958	0.01810
1837.14999	0.01794
1835.09041	0.01748
1833.03082	0.01714
1830.97124	0.01706
1828.91165	0.01702
1826.85206	0.01683
1824.79248	0.01655
1822.73289	0.01623
1820.67331	0.01597
1818.61372	0.01602
1816.55414	0.01626
1814.49455	0.01627
1812.43497	0.01611
1810.37538	0.01613
1808.31580	0.01625
1806.25621	0.01622
1804.19663	0.01609
1802.13704	0.01598
1800.07746	0.01590
1798.01787	0.01580
1795.95829	0.01556
1793.89870	0.01529
1791.83912	0.01513
1789.77953	0.01508
1787.71995	0.01503
1785.66036	0.01488
1783.60078	0.01468
1781.54119	0.01450
1779.48161	0.01430
1777.42202	0.01408
1775.36243	0.01386
1773.30285	0.01374
1771.24326	0.01383
1769.18368	0.01401
1767.12409	0.01393
1765.06451	0.01357
1763.00492	0.01318
1760.94534	0.01296
1758.88575	0.01292
1756.82617	0.01282
1754.76658	0.01257
1752.70700	0.01233
1750.64741	0.01216
1748.58783	0.01200
1746.52824	0.01192
1744.46866	0.01189
1742.40907	0.01180
1740.34949	0.01162
1738.28990	0.01144
1736.23032	0.01123
1734.17073	0.01099
1732.11115	0.01090
1730.05156	0.01098
1727.99198	0.01105
1725.93239	0.01100
1723.87281	0.01096
1721.81322	0.01106
1719.75363	0.01119
1717.69405	0.01128
1715.63446	0.01155
1713.57488	0.01227
1711.51529	0.01349
1709.45571	0.01527
1707.39612	0.01795
1705.33654	0.02165
1703.27695	0.02579
1701.21737	0.02981
1699.15778	0.03297
1697.09820	0.03426
1695.03861	0.03420
1692.97903	0.03386
1690.91944	0.03372
1688.85986	0.03390
1686.80027	0.03446
1684.74069	0.03561
1682.68110	0.03721
1680.62152	0.03869
1678.56193	0.04004
1676.50235	0.04156
1674.44276	0.04334
1672.38318	0.04525
1670.32359	0.04734
1668.26401	0.04954
1666.20442	0.05153
1664.14483	0.05354
1662.08525	0.05592
1660.02566	0.05845
1657.96608	0.06072
1655.90649	0.06287
1653.84691	0.06556
1651.78732	0.06861
1649.72774	0.07090
1647.66815	0.07298
1645.60857	0.07565
1643.54898	0.07848
1641.48940	0.08108
1639.42981	0.08364
1637.37023	0.08661
1635.31064	0.09034
1633.25106	0.09409
1631.19147	0.09727
1629.13189	0.10025
1627.07230	0.10314
1625.01272	0.10569
1622.95313	0.10780
1620.89355	0.10919
1618.83396	0.10951
1616.77438	0.10883
1614.71479	0.10743
1612.65520	0.10551
1610.59562	0.10296
1608.53603	0.09969
1606.47645	0.09589
1604.41686	0.09175
1602.35728	0.08749
1600.29769	0.08346
1598.23811	0.07981
1596.17852	0.07644
1594.11894	0.07320
1592.05935	0.07003
1589.99977	0.06698
1587.94018	0.06418
1585.88060	0.06179
1583.82101	0.05980
1581.76143	0.05819
1579.70184	0.05694
1577.64226	0.05602
1575.58267	0.05554
1573.52309	0.05552
1571.46350	0.05576
1569.40392	0.05633
1567.34433	0.05731
1565.28475	0.05857
1563.22516	0.05978
1561.16558	0.06086
1559.10599	0.06247
1557.04640	0.06467
1554.98682	0.06666
1552.92723	0.06838
1550.86765	0.07004
1548.80806	0.07171
1546.74848	0.07336
1544.68889	0.07497
1542.62931	0.07681
1540.56972	0.07925
1538.51014	0.08186
1536.45055	0.08381
1534.39097	0.08554
1532.33138	0.08763
1530.27180	0.08976
1528.21221	0.09181
1526.15263	0.09392
1524.09304	0.09605
1522.03346	0.09827
1519.97387	0.10064
1517.91429	0.10316
1515.85470	0.10580
1513.79512	0.10793
1511.73553	0.10898
1509.67595	0.10908
1507.61636	0.10855
1505.55677	0.10770
1503.49719	0.10670
1501.43760	0.10537
1499.37802	0.10352
1497.31843	0.10116
1495.25885	0.09865
1493.19926	0.09621
1491.13968	0.09349
1489.08009	0.09036
1487.02051	0.08726
1484.96092	0.08441
1482.90134	0.08173
1480.84175	0.07920
1478.78217	0.07684
1476.72258	0.07457
1474.66300	0.07241
1472.60341	0.07050
1470.54383	0.06900
1468.48424	0.06780
1466.42466	0.06668
1464.36507	0.06571
1462.30549	0.06508
1460.24590	0.06474
1458.18632	0.06496
1456.12673	0.06607
1454.06715	0.06774
1452.00756	0.06958
1449.94797	0.07152
1447.88839	0.07335
1445.82880	0.07480
1443.76922	0.07578
1441.70963	0.07627
1439.65005	0.07624
1437.59046	0.07563
1435.53088	0.07440
1433.47129	0.07268
1431.41171	0.07074
1429.35212	0.06883
1427.29254	0.06719
1425.23295	0.06587
1423.17337	0.06485
1421.11378	0.06407
1419.05420	0.06353
1416.99461	0.06333
1414.93503	0.06339
1412.87544	0.06355
1410.81586	0.06371
1408.75627	0.06380
1406.69669	0.06380
1404.63710	0.06372
1402.57752	0.06349
1400.51793	0.06307
1398.45834	0.06258
1396.39876	0.06207
1394.33917	0.06162
1392.27959	0.06131
1390.22000	0.06105
1388.16042	0.06075
1386.10083	0.06044
1384.04125	0.06014
1381.98166	0.05979
1379.92208	0.05934
1377.86249	0.05886
1375.80291	0.05854
1373.74332	0.05849
1371.68374	0.05860
1369.62415	0.05870
1367.56457	0.05868
1365.50498	0.05835
1363.44540	0.05761
1361.38581	0.05663
1359.32623	0.05568
1357.26664	0.05482
1355.20706	0.05414
1353.14747	0.05367
1351.08789	0.05323
1349.02830	0.05281
1346.96872	0.05255
1344.90913	0.05239
1342.84954	0.05221
1340.78996	0.05201
1338.73037	0.05197
1336.67079	0.05213
1334.61120	0.05226
1332.55162	0.05214
1330.49203	0.05179
1328.43245	0.05136
1326.37286	0.05092
1324.31328	0.05046
1322.25369	0.04998
1320.19411	0.04953
1318.13452	0.04912
1316.07494	0.04881
1314.01535	0.04860
1311.95577	0.04842
1309.89618	0.04818
1307.83660	0.04791
1305.77701	0.04770
1303.71743	0.04756
1301.65784	0.04735
1299.59826	0.04701
1297.53867	0.04661
1295.47909	0.04618
1293.41950	0.04580
1291.35991	0.04561
1289.30033	0.04559
1287.24074	0.04560
1285.18116	0.04555
1283.12157	0.04548
1281.06199	0.04555
1279.00240	0.04589
1276.94282	0.04651
1274.88323	0.04731
1272.82365	0.04831
1270.76406	0.04951
1268.70448	0.05078
1266.64489	0.05198
1264.58531	0.05294
1262.52572	0.05360
1260.46614	0.05394
1258.40655	0.05403
1256.34697	0.05401
1254.28738	0.05397
1252.22780	0.05395
1250.16821	0.05398
1248.10863	0.05417
1246.04904	0.05458
1243.98946	0.05516
1241.92987	0.05591
1239.87029	0.05682
1237.81070	0.05788
1235.75111	0.05905
1233.69153	0.06027
1231.63194	0.06142
1229.57236	0.06233
1227.51277	0.06291
1225.45319	0.06307
1223.39360	0.06287
1221.33402	0.06253
1219.27443	0.06212
1217.21485	0.06154
1215.15526	0.06069
1213.09568	0.05961
1211.03609	0.05843
1208.97651	0.05714
1206.91692	0.05575
1204.85734	0.05439
1202.79775	0.05312
1200.73817	0.05188
1198.67858	0.05062
1196.61900	0.04937
1194.55941	0.04832
1192.49983	0.04746
1190.44024	0.04668
1188.38066	0.04596
1186.32107	0.04530
1184.26149	0.04477
1182.20190	0.04439
1180.14231	0.04417
1178.08273	0.04422
1176.02314	0.04469
1173.96356	0.04543
1171.90397	0.04608
1169.84439	0.04662
1167.78480	0.04709
1165.72522	0.04739
1163.66563	0.04749
1161.60605	0.04751
1159.54646	0.04743
1157.48688	0.04718
1155.42729	0.04676
1153.36771	0.04621
1151.30812	0.04553
1149.24854	0.04471
1147.18895	0.04385
1145.12937	0.04305
1143.06978	0.04228
1141.01020	0.04157
1138.95061	0.04101
1136.89103	0.04053
1134.83144	0.04001
1132.77186	0.03949
1130.71227	0.03900
1128.65268	0.03864
1126.59310	0.03837
1124.53351	0.03804
1122.47393	0.03771
1120.41434	0.03746
1118.35476	0.03722
1116.29517	0.03700
1114.23559	0.03686
1112.17600	0.03670
1110.11642	0.03654
1108.05683	0.03650
1105.99725	0.03653
1103.93766	0.03647
1101.87808	0.03628
1099.81849	0.03602
1097.75891	0.03572
1095.69932	0.03540
1093.63974	0.03511
1091.58015	0.03499
1089.52057	0.03511
1087.46098	0.03541
1085.40140	0.03583
1083.34181	0.03635
1081.28223	0.03695
1079.22264	0.03763
1077.16306	0.03839
1075.10347	0.03920
1073.04388	0.03993
1070.98430	0.04042
1068.92471	0.04073
1066.86513	0.04097
1064.80554	0.04119
1062.74596	0.04127
1060.68637	0.04113
1058.62679	0.04092
1056.56720	0.04071
1054.50762	0.04048
1052.44803	0.04025
1050.38845	0.03998
1048.32886	0.03963
1046.26928	0.03924
1044.20969	0.03891
1042.15011	0.03872
1040.09052	0.03850
1038.03094	0.03818
1035.97135	0.03785
1033.91177	0.03748
1031.85218	0.03694
1029.79260	0.03637
1027.73301	0.03590
1025.67343	0.03547
1023.61384	0.03500
1021.55425	0.03460
1019.49467	0.03446
1017.43508	0.03452
1015.37550	0.03455
1013.31591	0.03449
1011.25633	0.03445
1009.19674	0.03449
1007.13716	0.03457
1005.07757	0.03476
1003.01799	0.03510
1000.95840	0.03545
998.89882	0.03569
996.83923	0.03581
994.77965	0.03573
992.72006	0.03534
990.66048	0.03473
988.60089	0.03411
986.54131	0.03361
984.48172	0.03326
982.42214	0.03317
980.36255	0.03344
978.30297	0.03391
976.24338	0.03429
974.18380	0.03446
972.12421	0.03438
970.06463	0.03408
968.00504	0.03358
965.94545	0.03288
963.88587	0.03210
961.82628	0.03155
959.76670	0.03121
957.70711	0.03086
955.64753	0.03055
953.58794	0.03028
951.52836	0.03000
949.46877	0.02981
947.40919	0.02969
945.34960	0.02948
943.29002	0.02922
941.23043	0.02900
939.17085	0.02876
937.11126	0.02854
935.05168	0.02844
932.99209	0.02842
930.93251	0.02842
928.87292	0.02842
926.81334	0.02835
924.75375	0.02811
922.69417	0.02777
920.63458	0.02739
918.57500	0.02699
916.51541	0.02672
914.45582	0.02655
912.39624	0.02630
910.33665	0.02602
908.27707	0.02577
906.21748	0.02555
904.15790	0.02545
902.09831	0.02540
900.03873	0.02534
897.97914	0.02526
895.91956	0.02515
893.85997	0.02504
891.80039	0.02488
889.74080	0.02467
887.68122	0.02449
885.62163	0.02429
883.56205	0.02409
881.50246	0.02396
879.44288	0.02383
877.38329	0.02370
875.32371	0.02361
873.26412	0.02355
871.20454	0.02349
869.14495	0.02337
867.08537	0.02313
865.02578	0.02281
862.96620	0.02256
860.90661	0.02260
858.84702	0.02286
856.78744	0.02308
854.72785	0.02320
852.66827	0.02331
850.60868	0.02343
848.54910	0.02340
846.48951	0.02317
844.42993	0.02289
842.37034	0.02263
840.31076	0.02248
838.25117	0.02259
836.19159	0.02287
834.13200	0.02296
832.07242	0.02294
830.01283	0.02306
827.95325	0.02321
825.89366	0.02325
823.83408	0.02320
821.77449	0.02304
819.71491	0.02286
817.65532	0.02271
815.59574	0.02254
813.53615	0.02240
811.47657	0.02231
809.41698	0.02219
807.35740	0.02203
805.29781	0.02189
803.23822	0.02181
801.17864	0.02180
799.11905	0.02179
797.05947	0.02168
794.99988	0.02159
792.94030	0.02158
790.88071	0.02161
788.82113	0.02179
786.76154	0.02204
784.70196	0.02214
782.64237	0.02212
780.58279	0.02224
778.52320	0.02248
776.46362	0.02264
774.40403	0.02271
772.34445	0.02283
770.28486	0.02302
768.22528	0.02330
766.16569	0.02364
764.10611	0.02385
762.04652	0.02394
759.98694	0.02395
757.92735	0.02392
755.86777	0.02390
753.80818	0.02402
751.74859	0.02436
749.68901	0.02482
747.62942	0.02517
745.56984	0.02541
743.51025	0.02583
741.45067	0.02636
739.39108	0.02678
737.33150	0.02718
735.27191	0.02770
733.21233	0.02829
731.15274	0.02888
729.09316	0.02943
727.03357	0.02993
724.97399	0.03054
722.91440	0.03108
720.85482	0.03127
718.79523	0.03176
716.73565	0.03188
714.67606	0.03232
712.61648	0.03295
710.55689	0.03344
708.49731	0.03385
706.43772	0.03434
704.37814	0.03483
702.31855	0.03523
700.25897	0.03562
698.19938	0.03601
696.13979	0.03634
694.08021	0.03664
692.02062	0.03694
689.96104	0.03718
687.90145	0.03722
685.84187	0.03709
683.78228	0.03706
681.72270	0.03710
679.66311	0.03707
677.60353	0.03705
675.54394	0.03697
673.48436	0.03656
671.42477	0.03817
669.36519	0.04186
667.30560	0.03291
665.24602	0.03642
663.18643	0.03684
661.12685	0.03641
659.06726	0.03649
657.00768	0.03680
654.94809	0.03709
652.88851	0.03726
650.82892	0.03741
648.76934	0.03735
646.70975	0.03756
644.65016	0.03779
642.59058	0.03803
640.53099	0.03820
638.47141	0.03832
636.41182	0.03843
634.35224	0.03848
632.29265	0.03852
630.23307	0.03864
628.17348	0.03872
626.11390	0.03874
624.05431	0.03874
621.99473	0.03865
619.93514	0.03851
617.87556	0.03846
615.81597	0.03847
613.75639	0.03841
611.69680	0.03826
609.63722	0.03798
607.57763	0.03762
605.51805	0.03726
603.45846	0.03692
601.39888	0.03654
599.33929	0.03605
597.27971	0.03555
595.22012	0.03514
593.16054	0.03478
591.10095	0.03449
589.04136	0.03425
586.98178	0.03401
584.92219	0.03370
582.86261	0.03337
580.80302	0.03322
578.74344	0.03318
576.68385	0.03296
574.62427	0.03269
572.56468	0.03270
570.50510	0.03286
568.44551	0.03293
566.38593	0.03301
564.32634	0.03339
562.26676	0.03405
560.20717	0.03493
558.14759	0.03599
556.08800	0.03707
554.02842	0.03792
551.96883	0.03833
549.90925	0.03849
547.84966	0.03859
545.79008	0.03863
543.73049	0.03850
541.67091	0.03802
539.61132	0.03733
537.55173	0.03675
535.49215	0.03625
533.43256	0.03571
531.37298	0.03526
529.31339	0.03497
527.25381	0.03463
525.19422	0.03416
523.13464	0.03382
521.07505	0.03372
519.01547	0.03362
516.95588	0.03330
514.89630	0.03292
512.83671	0.03271
510.77713	0.03247
508.71754	0.03209
506.65796	0.03164
504.59837	0.03106
502.53879	0.03046
500.47920	0.03019
498.41962	0.03018
496.36003	0.03016
494.30045	0.03009
492.24086	0.02990
490.18128	0.02970
488.12169	0.02978
486.06211	0.03000
484.00252	0.02998
481.94293	0.02960
479.88335	0.02917
477.82376	0.02893
475.76418	0.02866
473.70459	0.02816
471.64501	0.02760
469.58542	0.02721
467.52584	0.02709
465.46625	0.02707
463.40667	0.02688
461.34708	0.02649
459.28750	0.02626
457.22791	0.02642
455.16833	0.02648
453.10874	0.02600
451.04916	0.02548
448.98957	0.02533
446.92999	0.02518
444.87040	0.02494
442.81082	0.02490
440.75123	0.02512
438.69165	0.02526
436.63206	0.02494
434.57248	0.02451
432.51289	0.02478
430.45330	0.02547
428.39372	0.02579
426.33413	0.02577
424.27455	0.02567
422.21496	0.02528
420.15538	0.02462
418.09579	0.02425
416.03621	0.02423
413.97662	0.02408
411.91704	0.02363
409.85745	0.02310
407.79787	0.02271
405.73828	0.02252
403.67870	0.02251
401.61911	0.02238
399.55953	0.02186
