3997.65486	0.06522
3995.59527	0.06507
3993.53569	0.06485
3991.47610	0.06433
3989.41652	0.06393
3987.35693	0.06409
3985.29735	0.06448
3983.23776	0.06460
3981.17817	0.06465
3979.11859	0.06481
3977.05900	0.06455
3974.99942	0.06411
3972.93983	0.06393
3970.88025	0.06393
3968.82066	0.06390
3966.76108	0.06369
3964.70149	0.06322
3962.64191	0.06300
3960.58232	0.06349
3958.52274	0.06363
3956.46315	0.06334
3954.40357	0.06341
3952.34398	0.06348
3950.28440	0.06303
3948.22481	0.06284
3946.16523	0.06324
3944.10564	0.06276
3942.04606	0.06240
3939.98647	0.06302
3937.92689	0.06354
3935.86730	0.06393
3933.80772	0.06370
3931.74813	0.06366
3929.68855	0.06430
3927.62896	0.06406
3925.56937	0.06294
3923.50979	0.06269
3921.45020	0.06268
3919.39062	0.06208
3917.33103	0.06198
3915.27145	0.06272
3913.21186	0.06289
3911.15228	0.06254
3909.09269	0.06274
3907.03311	0.06241
3904.97352	0.06141
3902.91394	0.06160
3900.85435	0.06193
3898.79477	0.06215
3896.73518	0.06328
3894.67560	0.06325
3892.61601	0.06181
3890.55643	0.06233
3888.49684	0.06346
3886.43726	0.06213
3884.37767	0.06231
3882.31809	0.06212
3880.25850	0.06094
3878.19892	0.06213
3876.13933	0.06202
3874.07974	0.06098
3872.02016	0.06006
3869.96057	0.05916
3867.90099	0.06100
3865.84140	0.06129
3863.78182	0.06071
3861.72223	0.06189
3859.66265	0.06350
3857.60306	0.06341
3855.54348	0.05904
3853.48389	0.05597
3851.42431	0.06014
3849.36472	0.06308
3847.30514	0.06219
3845.24555	0.06058
3843.18597	0.06018
3841.12638	0.06000
3839.06680	0.05841
3837.00721	0.05854
3834.94763	0.06045
3832.88804	0.06078
3830.82846	0.06075
3828.76887	0.06081
3826.70929	0.06075
3824.64970	0.06102
3822.59012	0.05892
3820.53053	0.05844
3818.47094	0.05951
3816.41136	0.05772
3814.35177	0.05876
3812.29219	0.06081
3810.23260	0.06007
3808.17302	0.05808
3806.11343	0.05921
3804.05385	0.06066
3801.99426	0.05850
3799.93468	0.05935
3797.87509	0.06019
3795.81551	0.05902
3793.75592	0.05889
3791.69634	0.05852
3789.63675	0.05789
3787.57717	0.05753
3785.51758	0.05750
3783.45800	0.05811
3781.39841	0.05787
3779.33883	0.05711
3777.27924	0.05794
3775.21966	0.05892
3773.16007	0.05886
3771.10049	0.05773
3769.04090	0.05755
3766.98132	0.05778
3764.92173	0.05777
3762.86214	0.05829
3760.80256	0.05749
3758.74297	0.05716
3756.68339	0.05872
3754.62380	0.05898
3752.56422	0.05651
3750.50463	0.05613
3748.44505	0.05940
3746.38546	0.05788
3744.32588	0.05403
3742.26629	0.05694
3740.20671	0.05878
3738.14712	0.05649
3736.08754	0.05416
3734.02795	0.05419
3731.96837	0.05554
3729.90878	0.05715
3727.84920	0.05643
3725.78961	0.05477
3723.73003	0.05422
3721.67044	0.05426
3719.61086	0.05490
3717.55127	0.05587
3715.49169	0.05617
3713.43210	0.05447
3711.37251	0.05344
3709.31293	0.05489
3707.25334	0.05629
3705.19376	0.05591
3703.13417	0.05413
3701.07459	0.05361
3699.01500	0.05452
3696.95542	0.05476
3694.89583	0.05512
3692.83625	0.05499
3690.77666	0.05335
3688.71708	0.05258
3686.65749	0.05473
3684.59791	0.05591
3682.53832	0.05519
3680.47874	0.05480
3678.41915	0.05377
3676.35957	0.05168
3674.29998	0.05410
3672.24040	0.05584
3670.18081	0.05341
3668.12123	0.05411
3666.06164	0.05552
3664.00206	0.05504
3661.94247	0.05485
3659.88289	0.05512
3657.82330	0.05426
3655.76371	0.05464
3653.70413	0.05652
3651.64454	0.05492
3649.58496	0.05258
3647.52537	0.05389
3645.46579	0.05629
3643.40620	0.05645
3641.34662	0.05523
3639.28703	0.05467
3637.22745	0.05481
3635.16786	0.05535
3633.10828	0.05633
3631.04869	0.05506
3628.98911	0.05284
3626.92952	0.05547
3624.86994	0.05815
3622.81035	0.05760
3620.75077	0.05560
3618.69118	0.05531
3616.63160	0.05689
3614.57201	0.05712
3612.51243	0.05696
3610.45284	0.05719
3608.39326	0.05720
3606.33367	0.05806
3604.27408	0.05855
3602.21450	0.05787
3600.15491	0.05751
3598.09533	0.05778
3596.03574	0.05797
3593.97616	0.05898
3591.91657	0.06025
3589.85699	0.05917
3587.79740	0.05753
3585.73782	0.05889
3583.67823	0.06070
3581.61865	0.06081
3579.55906	0.06057
3577.49948	0.06062
3575.43989	0.06076
3573.38031	0.06122
3571.32072	0.06159
3569.26114	0.06075
3567.20155	0.06024
3565.14197	0.06178
3563.08238	0.06286
3561.02280	0.06268
3558.96321	0.06260
3556.90363	0.06285
3554.84404	0.06319
3552.78446	0.06356
3550.72487	0.06425
3548.66528	0.06437
3546.60570	0.06393
3544.54611	0.06432
3542.48653	0.06516
3540.42694	0.06567
3538.36736	0.06566
3536.30777	0.06551
3534.24819	0.06580
3532.18860	0.06612
3530.12902	0.06630
3528.06943	0.06656
3526.00985	0.06692
3523.95026	0.06723
3521.89068	0.06749
3519.83109	0.06755
3517.77151	0.06774
3515.71192	0.06825
3513.65234	0.06853
3511.59275	0.06839
3509.53317	0.06827
3507.47358	0.06870
3505.41400	0.06898
3503.35441	0.06915
3501.29483	0.06990
3499.23524	0.07041
3497.17565	0.07031
3495.11607	0.07010
3493.05648	0.07012
3490.99690	0.07033
3488.93731	0.07050
3486.87773	0.07081
3484.81814	0.07120
3482.75856	0.07136
3480.69897	0.07171
3478.63939	0.07208
3476.57980	0.07212
3474.52022	0.07219
3472.46063	0.07224
3470.40105	0.07227
3468.34146	0.07259
3466.28188	0.07310
3464.22229	0.07337
3462.16271	0.07334
3460.10312	0.07320
3458.04354	0.07297
3455.98395	0.07286
3453.92437	0.07280
3451.86478	0.07292
3449.80520	0.07322
3447.74561	0.07326
3445.68603	0.07363
3443.62644	0.07420
3441.56685	0.07450
3439.50727	0.07460
3437.44768	0.07473
3435.38810	0.07520
3433.32851	0.07556
3431.26893	0.07557
3429.20934	0.07572
3427.14976	0.07625
3425.09017	0.07699
3423.03059	0.07745
3420.97100	0.07750
3418.91142	0.07759
3416.85183	0.07779
3414.79225	0.07816
3412.73266	0.07848
3410.67308	0.07832
3408.61349	0.07814
3406.55391	0.07847
3404.49432	0.07914
3402.43474	0.07980
3400.37515	0.08042
3398.31557	0.08105
3396.25598	0.08173
3394.19640	0.08208
3392.13681	0.08210
3390.07723	0.08215
3388.01764	0.08231
3385.95805	0.08272
3383.89847	0.08322
3381.83888	0.08354
3379.77930	0.08380
3377.71971	0.08415
3375.66013	0.08464
3373.60054	0.08517
3371.54096	0.08554
3369.48137	0.08601
3367.42179	0.08668
3365.36220	0.08721
3363.30262	0.08742
3361.24303	0.08776
3359.18345	0.08854
3357.12386	0.08936
3355.06428	0.09023
3353.00469	0.09138
3350.94511	0.09258
3348.88552	0.09377
3346.82594	0.09494
3344.76635	0.09598
3342.70677	0.09709
3340.64718	0.09845
3338.58760	0.10002
3336.52801	0.10181
3334.46842	0.10373
3332.40884	0.10555
3330.34925	0.10755
3328.28967	0.11003
3326.23008	0.11263
3324.17050	0.11521
3322.11091	0.11794
3320.05133	0.12082
3317.99174	0.12380
3315.93216	0.12671
3313.87257	0.12962
3311.81299	0.13274
3309.75340	0.13598
3307.69382	0.13959
3305.63423	0.14371
3303.57465	0.14798
3301.51506	0.15199
3299.45548	0.15564
3297.39589	0.15931
3295.33631	0.16317
3293.27672	0.16679
3291.21714	0.17005
3289.15755	0.17318
3287.09797	0.17613
3285.03838	0.17882
3282.97880	0.18109
3280.91921	0.18290
3278.85962	0.18429
3276.80004	0.18514
3274.74045	0.18567
3272.68087	0.18600
3270.62128	0.18563
3268.56170	0.18434
3266.50211	0.18240
3264.44253	0.18028
3262.38294	0.17824
3260.32336	0.17613
3258.26377	0.17399
3256.20419	0.17174
3254.14460	0.16928
3252.08502	0.16698
3250.02543	0.16482
3247.96585	0.16250
3245.90626	0.16024
3243.84668	0.15824
3241.78709	0.15636
3239.72751	0.15451
3237.66792	0.15265
3235.60834	0.15082
3233.54875	0.14895
3231.48917	0.14703
3229.42958	0.14537
3227.36999	0.14392
3225.31041	0.14233
3223.25082	0.14066
3221.19124	0.13922
3219.13165	0.13790
3217.07207	0.13642
3215.01248	0.13482
3212.95290	0.13335
3210.89331	0.13205
3208.83373	0.13103
3206.77414	0.13003
3204.71456	0.12866
3202.65497	0.12732
3200.59539	0.12630
3198.53580	0.12521
3196.47622	0.12405
3194.41663	0.12301
3192.35705	0.12174
3190.29746	0.12021
3188.23788	0.11892
3186.17829	0.11794
3184.11871	0.11695
3182.05912	0.11591
3179.99954	0.11479
3177.93995	0.11358
3175.88037	0.11239
3173.82078	0.11117
3171.76119	0.11015
3169.70161	0.10938
3167.64202	0.10853
3165.58244	0.10749
3163.52285	0.10647
3161.46327	0.10555
3159.40368	0.10468
3157.34410	0.10373
3155.28451	0.10281
3153.22493	0.10218
3151.16534	0.10167
3149.10576	0.10112
3147.04617	0.10055
3144.98659	0.09983
3142.92700	0.09906
3140.86742	0.09841
3138.80783	0.09787
3136.74825	0.09738
3134.68866	0.09681
3132.62908	0.09637
3130.56949	0.09624
3128.50991	0.09607
3126.45032	0.09560
3124.39074	0.09503
3122.33115	0.09479
3120.27156	0.09496
3118.21198	0.09512
3116.15239	0.09502
3114.09281	0.09484
3112.03322	0.09475
3109.97364	0.09480
3107.91405	0.09491
3105.85447	0.09491
3103.79488	0.09493
3101.73530	0.09520
3099.67571	0.09559
3097.61613	0.09576
3095.55654	0.09583
3093.49696	0.09605
3091.43737	0.09632
3089.37779	0.09676
3087.31820	0.09739
3085.25862	0.09778
3083.19903	0.09782
3081.13945	0.09770
3079.07986	0.09774
3077.02028	0.09806
3074.96069	0.09828
3072.90111	0.09818
3070.84152	0.09808
3068.78194	0.09826
3066.72235	0.09856
3064.66276	0.09845
3062.60318	0.09793
3060.54359	0.09738
3058.48401	0.09694
3056.42442	0.09658
3054.36484	0.09627
3052.30525	0.09575
3050.24567	0.09493
3048.18608	0.09409
3046.12650	0.09352
3044.06691	0.09304
3042.00733	0.09247
3039.94774	0.09182
3037.88816	0.09109
3035.82857	0.09043
3033.76899	0.08991
3031.70940	0.08938
3029.64982	0.08890
3027.59023	0.08851
3025.53065	0.08798
3023.47106	0.08716
3021.41148	0.08639
3019.35189	0.08594
3017.29231	0.08552
3015.23272	0.08504
3013.17313	0.08472
3011.11355	0.08453
3009.05396	0.08434
3006.99438	0.08408
3004.93479	0.08392
3002.87521	0.08397
3000.81562	0.08414
2998.75604	0.08430
2996.69645	0.08445
2994.63687	0.08463
2992.57728	0.08486
2990.51770	0.08515
2988.45811	0.08553
2986.39853	0.08606
2984.33894	0.08663
2982.27936	0.08703
2980.21977	0.08715
2978.16019	0.08729
2976.10060	0.08783
2974.04102	0.08847
2971.98143	0.08883
2969.92185	0.08914
2967.86226	0.08952
2965.80268	0.08964
2963.74309	0.08943
2961.68351	0.08908
2959.62392	0.08864
2957.56433	0.08813
2955.50475	0.08775
2953.44516	0.08756
2951.38558	0.08734
2949.32599	0.08727
2947.26641	0.08769
2945.20682	0.08824
2943.14724	0.08871
2941.08765	0.08932
2939.02807	0.09025
2936.96848	0.09146
2934.90890	0.09272
2932.84931	0.09380
2930.78973	0.09472
2928.73014	0.09545
2926.67056	0.09584
2924.61097	0.09606
2922.55139	0.09636
2920.49180	0.09658
2918.43222	0.09647
2916.37263	0.09584
2914.31305	0.09450
2912.25346	0.09270
2910.19388	0.09099
2908.13429	0.08972
2906.07471	0.08877
2904.01512	0.08795
2901.95553	0.08727
2899.89595	0.08664
2897.83636	0.08595
2895.77678	0.08530
2893.71719	0.08477
2891.65761	0.08426
2889.59802	0.08399
2887.53844	0.08399
2885.47885	0.08390
2883.41927	0.08373
2881.35968	0.08367
2879.30010	0.08377
2877.24051	0.08404
2875.18093	0.08441
2873.12134	0.08465
2871.06176	0.08453
2869.00217	0.08406
2866.94259	0.08356
2864.88300	0.08310
2862.82342	0.08273
2860.76383	0.08267
2858.70425	0.08281
2856.64466	0.08301
2854.58508	0.08331
2852.52549	0.08373
2850.46590	0.08394
2848.40632	0.08356
2846.34673	0.08245
2844.28715	0.08088
2842.22756	0.07944
2840.16798	0.07849
2838.10839	0.07789
2836.04881	0.07736
2833.98922	0.07683
2831.92964	0.07638
2829.87005	0.07612
2827.81047	0.07605
2825.75088	0.07587
2823.69130	0.07539
2821.63171	0.07491
2819.57213	0.07474
2817.51254	0.07463
2815.45296	0.07451
2813.39337	0.07453
2811.33379	0.07449
2809.27420	0.07435
2807.21462	0.07432
2805.15503	0.07422
2803.09545	0.07390
2801.03586	0.07359
2798.97628	0.07335
2796.91669	0.07313
2794.85710	0.07301
2792.79752	0.07299
2790.73793	0.07294
2788.67835	0.07276
2786.61876	0.07257
2784.55918	0.07240
2782.49959	0.07214
2780.44001	0.07187
2778.38042	0.07181
2776.32084	0.07184
2774.26125	0.07181
2772.20167	0.07177
2770.14208	0.07174
2768.08250	0.07162
2766.02291	0.07140
2763.96333	0.07119
2761.90374	0.07103
2759.84416	0.07091
2757.78457	0.07074
2755.72499	0.07050
2753.66540	0.07016
2751.60582	0.06984
2749.54623	0.06972
2747.48665	0.06973
2745.42706	0.06959
2743.36747	0.06934
2741.30789	0.06920
2739.24830	0.06907
2737.18872	0.06881
2735.12913	0.06854
2733.06955	0.06833
2731.00996	0.06812
2728.95038	0.06794
2726.89079	0.06786
2724.83121	0.06780
2722.77162	0.06767
2720.71204	0.06755
2718.65245	0.06757
2716.59287	0.06752
2714.53328	0.06725
2712.47370	0.06694
2710.41411	0.06671
2708.35453	0.06651
2706.29494	0.06630
2704.23536	0.06607
2702.17577	0.06590
2700.11619	0.06589
2698.05660	0.06603
2695.99702	0.06604
2693.93743	0.06580
2691.87785	0.06557
2689.81826	0.06553
2687.75867	0.06551
2685.69909	0.06541
2683.63950	0.06519
2681.57992	0.06493
2679.52033	0.06480
2677.46075	0.06472
2675.40116	0.06459
2673.34158	0.06446
2671.28199	0.06447
2669.22241	0.06454
2667.16282	0.06444
2665.10324	0.06432
2663.04365	0.06430
2660.98407	0.06424
2658.92448	0.06407
2656.86490	0.06384
2654.80531	0.06367
2652.74573	0.06363
2650.68614	0.06360
2648.62656	0.06347
2646.56697	0.06325
2644.50739	0.06300
2642.44780	0.06293
2640.38822	0.06299
2638.32863	0.06270
2636.26904	0.06224
2634.20946	0.06201
2632.14987	0.06183
2630.09029	0.06163
2628.03070	0.06159
2625.97112	0.06167
2623.91153	0.06167
2621.85195	0.06147
2619.79236	0.06124
2617.73278	0.06115
2615.67319	0.06100
2613.61361	0.06058
2611.55402	0.06012
2609.49444	0.06002
2607.43485	0.06017
2605.37527	0.06010
2603.31568	0.05990
2601.25610	0.05982
2599.19651	0.05974
2597.13693	0.05958
2595.07734	0.05936
2593.01776	0.05915
2590.95817	0.05914
2588.89859	0.05904
2586.83900	0.05866
2584.77942	0.05838
2582.71983	0.05830
2580.66024	0.05812
2578.60066	0.05762
2576.54107	0.05729
2574.48149	0.05740
2572.42190	0.05735
2570.36232	0.05700
2568.30273	0.05673
2566.24315	0.05665
2564.18356	0.05669
2562.12398	0.05676
2560.06439	0.05673
2558.00481	0.05656
2555.94522	0.05645
2553.88564	0.05637
2551.82605	0.05619
2549.76647	0.05595
2547.70688	0.05564
2545.64730	0.05531
2543.58771	0.05531
2541.52813	0.05545
2539.46854	0.05527
2537.40896	0.05504
2535.34937	0.05506
2533.28979	0.05504
2531.23020	0.05486
2529.17062	0.05466
2527.11103	0.05442
2525.05144	0.05417
2522.99186	0.05403
2520.93227	0.05412
2518.87269	0.05441
2516.81310	0.05462
2514.75352	0.05468
2512.69393	0.05454
2510.63435	0.05403
2508.57476	0.05361
2506.51518	0.05351
2504.45559	0.05348
2502.39601	0.05349
2500.33642	0.05352
2498.27684	0.05349
2496.21725	0.05341
2494.15767	0.05332
2492.09808	0.05327
2490.03850	0.05322
2487.97891	0.05321
2485.91933	0.05345
2483.85974	0.05362
2481.80016	0.05332
2479.74057	0.05298
2477.68099	0.05289
2475.62140	0.05283
2473.56181	0.05261
2471.50223	0.05215
2469.44264	0.05192
2467.38306	0.05226
2465.32347	0.05264
2463.26389	0.05278
2461.20430	0.05274
2459.14472	0.05247
2457.08513	0.05220
2455.02555	0.05202
2452.96596	0.05180
2450.90638	0.05173
2448.84679	0.05187
2446.78721	0.05185
2444.72762	0.05162
2442.66804	0.05159
2440.60845	0.05168
2438.54887	0.05151
2436.48928	0.05117
2434.42970	0.05109
2432.37011	0.05126
2430.31053	0.05133
2428.25094	0.05126
2426.19136	0.05123
2424.13177	0.05109
2422.07219	0.05073
2420.01260	0.05048
2417.95301	0.05070
2415.89343	0.05106
2413.83384	0.05111
2411.77426	0.05083
2409.71467	0.05034
2407.65509	0.04991
2405.59550	0.04977
2403.53592	0.04984
2401.47633	0.04988
2399.41675	0.04972
2397.35716	0.04972
2395.29758	0.04985
2393.23799	0.04999
2391.17841	0.05007
2389.11882	0.05016
2387.05924	0.05031
2384.99965	0.05032
2382.94007	0.05003
2380.88048	0.04956
2378.82090	0.04908
2376.76131	0.04854
2374.70173	0.04790
2372.64214	0.04728
2370.58256	0.04649
2368.52297	0.04557
2366.46338	0.04516
2364.40380	0.04533
2362.34421	0.04547
2360.28463	0.04542
2358.22504	0.04565
2356.16546	0.04640
2354.10587	0.04736
2352.04629	0.04815
2349.98670	0.04850
2347.92712	0.04817
2345.86753	0.04745
2343.80795	0.04703
2341.74836	0.04685
2339.68878	0.04660
2337.62919	0.04644
2335.56961	0.04654
2333.51002	0.04677
2331.45044	0.04703
2329.39085	0.04742
2327.33127	0.04804
2325.27168	0.04866
2323.21210	0.04884
2321.15251	0.04849
2319.09293	0.04806
2317.03334	0.04788
2314.97376	0.04772
2312.91417	0.04742
2310.85458	0.04713
2308.79500	0.04700
2306.73541	0.04711
2304.67583	0.04728
2302.61624	0.04721
2300.55666	0.04691
2298.49707	0.04673
2296.43749	0.04676
2294.37790	0.04673
2292.31832	0.04662
2290.25873	0.04643
2288.19915	0.04596
2286.13956	0.04545
2284.07998	0.04530
2282.02039	0.04532
2279.96081	0.04514
2277.90122	0.04503
2275.84164	0.04507
2273.78205	0.04484
2271.72247	0.04448
2269.66288	0.04437
2267.60330	0.04432
2265.54371	0.04384
2263.48413	0.04309
2261.42454	0.04285
2259.36495	0.04284
2257.30537	0.04232
2255.24578	0.04175
2253.18620	0.04180
2251.12661	0.04207
2249.06703	0.04197
2247.00744	0.04170
2244.94786	0.04144
2242.88827	0.04141
2240.82869	0.04171
2238.76910	0.04199
2236.70952	0.04155
2234.64993	0.04052
2232.59035	0.04008
2230.53076	0.04036
2228.47118	0.04010
2226.41159	0.03921
2224.35201	0.03887
2222.29242	0.03913
2220.23284	0.03932
2218.17325	0.03931
2216.11367	0.03918
2214.05408	0.03885
2211.99450	0.03835
2209.93491	0.03819
2207.87533	0.03828
2205.81574	0.03832
2203.75615	0.03843
2201.69657	0.03808
2199.63698	0.03741
2197.57740	0.03756
2195.51781	0.03810
2193.45823	0.03778
2191.39864	0.03711
2189.33906	0.03684
2187.27947	0.03645
2185.21989	0.03607
2183.16030	0.03591
2181.10072	0.03533
2179.04113	0.03501
2176.98155	0.03501
2174.92196	0.03414
2172.86238	0.03324
2170.80279	0.03344
2168.74321	0.03403
2166.68362	0.03438
2164.62404	0.03446
2162.56445	0.03360
2160.50487	0.03149
2158.44528	0.02980
2156.38570	0.03028
2154.32611	0.03199
2152.26652	0.03343
2150.20694	0.03421
2148.14735	0.03423
2146.08777	0.03373
2144.02818	0.03347
2141.96860	0.03373
2139.90901	0.03396
2137.84943	0.03405
2135.78984	0.03413
2133.73026	0.03402
2131.67067	0.03424
2129.61109	0.03507
2127.55150	0.03607
2125.49192	0.03692
2123.43233	0.03724
2121.37275	0.03700
2119.31316	0.03693
2117.25358	0.03755
2115.19399	0.03829
2113.13441	0.03817
2111.07482	0.03722
2109.01524	0.03646
2106.95565	0.03636
2104.89607	0.03637
2102.83648	0.03611
2100.77690	0.03594
2098.71731	0.03594
2096.65772	0.03585
2094.59814	0.03581
2092.53855	0.03592
2090.47897	0.03618
2088.41938	0.03660
2086.35980	0.03681
2084.30021	0.03635
2082.24063	0.03578
2080.18104	0.03582
2078.12146	0.03583
2076.06187	0.03532
2074.00229	0.03486
2071.94270	0.03478
2069.88312	0.03484
2067.82353	0.03462
2065.76395	0.03403
2063.70436	0.03353
2061.64478	0.03350
2059.58519	0.03390
2057.52561	0.03447
2055.46602	0.03464
2053.40644	0.03438
2051.34685	0.03393
2049.28727	0.03318
2047.22768	0.03218
2045.16810	0.03147
2043.10851	0.03136
2041.04892	0.03142
2038.98934	0.03094
2036.92975	0.03002
2034.87017	0.02954
2032.81058	0.02937
2030.75100	0.02887
2028.69141	0.02823
2026.63183	0.02798
2024.57224	0.02800
2022.51266	0.02778
2020.45307	0.02730
2018.39349	0.02705
2016.33390	0.02727
2014.27432	0.02752
2012.21473	0.02771
2010.15515	0.02820
2008.09556	0.02876
2006.03598	0.02893
2003.97639	0.02858
2001.91681	0.02805
1999.85722	0.02797
1997.79764	0.02862
1995.73805	0.02924
1993.67847	0.02907
1991.61888	0.02893
1989.55929	0.02923
1987.49971	0.02915
1985.44012	0.02849
1983.38054	0.02757
1981.32095	0.02722
1979.26137	0.02717
1977.20178	0.02657
1975.14220	0.02610
1973.08261	0.02656
1971.02303	0.02738
1968.96344	0.02741
1966.90386	0.02686
1964.84427	0.02672
1962.78469	0.02681
1960.72510	0.02688
1958.66552	0.02697
1956.60593	0.02716
1954.54635	0.02761
1952.48676	0.02814
1950.42718	0.02836
1948.36759	0.02829
1946.30801	0.02812
1944.24842	0.02783
1942.18884	0.02773
1940.12925	0.02806
1938.06967	0.02833
1936.01008	0.02846
1933.95049	0.02833
1931.89091	0.02824
1929.83132	0.02836
1927.77174	0.02845
1925.71215	0.02847
1923.65257	0.02853
1921.59298	0.02894
1919.53340	0.02881
1917.47381	0.02853
1915.41423	0.02895
1913.35464	0.02877
1911.29506	0.02809
1909.23547	0.02788
1907.17589	0.02819
1905.11630	0.02837
1903.05672	0.02833
1900.99713	0.02816
1898.93755	0.02788
1896.87796	0.02768
1894.81838	0.02799
1892.75879	0.02841
1890.69921	0.02806
1888.63962	0.02798
1886.58004	0.02826
1884.52045	0.02798
1882.46086	0.02769
1880.40128	0.02758
1878.34169	0.02748
1876.28211	0.02733
1874.22252	0.02720
1872.16294	0.02703
1870.10335	0.02640
1868.04377	0.02633
1865.98418	0.02704
1863.92460	0.02710
1861.86501	0.02673
1859.80543	0.02658
1857.74584	0.02665
1855.68626	0.02676
1853.62667	0.02669
1851.56709	0.02643
1849.50750	0.02625
1847.44792	0.02612
1845.38833	0.02525
1843.32875	0.02505
1841.26916	0.02588
1839.20958	0.02568
1837.14999	0.02509
1835.09041	0.02513
1833.03082	0.02522
1830.97124	0.02472
1828.91165	0.02485
1826.85206	0.02514
1824.79248	0.02483
1822.73289	0.02488
1820.67331	0.02455
1818.61372	0.02385
1816.55414	0.02366
1814.49455	0.02387
1812.43497	0.02372
1810.37538	0.02354
1808.31580	0.02370
1806.25621	0.02381
1804.19663	0.02363
1802.13704	0.02317
1800.07746	0.02298
1798.01787	0.02331
1795.95829	0.02340
1793.89870	0.02257
1791.83912	0.02209
1789.77953	0.02275
1787.71995	0.02276
1785.66036	0.02196
1783.60078	0.02163
1781.54119	0.02157
1779.48161	0.02167
1777.42202	0.02202
1775.36243	0.02171
1773.30285	0.02062
1771.24326	0.02043
1769.18368	0.02082
1767.12409	0.02088
1765.06451	0.02080
1763.00492	0.01994
1760.94534	0.01958
1758.88575	0.01973
1756.82617	0.01958
1754.76658	0.01981
1752.70700	0.01929
1750.64741	0.01850
1748.58783	0.01871
1746.52824	0.01900
1744.46866	0.01885
1742.40907	0.01839
1740.34949	0.01808
1738.28990	0.01879
1736.23032	0.01840
1734.17073	0.01690
1732.11115	0.01761
1730.05156	0.01822
1727.99198	0.01787
1725.93239	0.01759
1723.87281	0.01772
1721.81322	0.01833
1719.75363	0.01803
1717.69405	0.01765
1715.63446	0.01931
1713.57488	0.02150
1711.51529	0.02341
1709.45571	0.02587
1707.39612	0.02991
1705.33654	0.03654
1703.27695	0.04404
1701.21737	0.04937
1699.15778	0.05415
1697.09820	0.05615
1695.03861	0.05561
1692.97903	0.05596
1690.91944	0.05605
1688.85986	0.05679
1686.80027	0.05758
1684.74069	0.05798
1682.68110	0.06125
1680.62152	0.06495
1678.56193	0.06694
1676.50235	0.06843
1674.44276	0.07150
1672.38318	0.07527
1670.32359	0.07775
1668.26401	0.08126
1666.20442	0.08529
1664.14483	0.08793
1662.08525	0.09128
1660.02566	0.09615
1657.96608	0.10066
1655.90649	0.10319
1653.84691	0.10527
1651.78732	0.11195
1649.72774	0.11770
1647.66815	0.11946
1645.60857	0.12299
1643.54898	0.12848
1641.48940	0.13307
1639.42981	0.13713
1637.37023	0.14108
1635.31064	0.14695
1633.25106	0.15479
1631.19147	0.16066
1629.13189	0.16518
1627.07230	0.17040
1625.01272	0.17531
1622.95313	0.17967
1620.89355	0.18352
1618.83396	0.18419
1616.77438	0.18259
1614.71479	0.18136
1612.65520	0.17856
1610.59562	0.17350
1608.53603	0.16761
1606.47645	0.16118
1604.41686	0.15404
1602.35728	0.14654
1600.29769	0.13933
1598.23811	0.13266
1596.17852	0.12645
1594.11894	0.12060
1592.05935	0.11505
1589.99977	0.10977
1587.94018	0.10500
1585.88060	0.10084
1583.82101	0.09745
1581.76143	0.09514
1579.70184	0.09348
1577.64226	0.09134
1575.58267	0.09041
1573.52309	0.09145
1571.46350	0.09137
1569.40392	0.09146
1567.34433	0.09370
1565.28475	0.09638
1563.22516	0.09882
1561.16558	0.09972
1559.10599	0.10130
1557.04640	0.10692
1554.98682	0.11102
1552.92723	0.11308
1550.86765	0.11527
1548.80806	0.11814
1546.74848	0.12130
1544.68889	0.12422
1542.62931	0.12709
1540.56972	0.13022
1538.51014	0.13541
1536.45055	0.13977
1534.39097	0.14147
1532.33138	0.14437
1530.27180	0.14828
1528.21221	0.15113
1526.15263	0.15398
1524.09304	0.15692
1522.03346	0.15962
1519.97387	0.16390
1517.91429	0.16839
1515.85470	0.17216
1513.79512	0.17531
1511.73553	0.17690
1509.67595	0.17637
1507.61636	0.17356
1505.55677	0.17195
1503.49719	0.17144
1501.43760	0.16869
1499.37802	0.16429
1497.31843	0.15980
1495.25885	0.15626
1493.19926	0.15257
1491.13968	0.14708
1489.08009	0.14128
1487.02051	0.13644
1484.96092	0.13197
1482.90134	0.12736
1480.84175	0.12305
1478.78217	0.11940
1476.72258	0.11593
1474.66300	0.11239
1472.60341	0.10934
1470.54383	0.10795
1468.48424	0.10662
1466.42466	0.10419
1464.36507	0.10255
1462.30549	0.10251
1460.24590	0.10202
1458.18632	0.10115
1456.12673	0.10335
1454.06715	0.10770
1452.00756	0.11088
1449.94797	0.11332
1447.88839	0.11590
1445.82880	0.11850
1443.76922	0.12031
1441.70963	0.12135
1439.65005	0.12137
1437.59046	0.11964
1435.53088	0.11781
1433.47129	0.11581
1431.41171	0.11228
1429.35212	0.10870
1427.29254	0.10603
1425.23295	0.10380
1423.17337	0.10219
1421.11378	0.10064
1419.05420	0.09933
1416.99461	0.09958
1414.93503	0.09987
1412.87544	0.09962
1410.81586	0.09952
1408.75627	0.09964
1406.69669	0.09945
1404.63710	0.09913
1402.57752	0.09887
1400.51793	0.09796
1398.45834	0.09691
1396.39876	0.09609
1394.33917	0.09535
1392.27959	0.09516
1390.22000	0.09460
1388.16042	0.09358
1386.10083	0.09320
1384.04125	0.09301
1381.98166	0.09231
1379.92208	0.09164
1377.86249	0.09124
1375.80291	0.09078
1373.74332	0.09061
1371.68374	0.09105
1369.62415	0.09128
1367.56457	0.09131
1365.50498	0.09087
1363.44540	0.08939
1361.38581	0.08775
1359.32623	0.08630
1357.26664	0.08484
1355.20706	0.08359
1353.14747	0.08265
1351.08789	0.08186
1349.02830	0.08124
1346.96872	0.08093
1344.90913	0.08091
1342.84954	0.08089
1340.78996	0.08059
1338.73037	0.08049
1336.67079	0.08074
1334.61120	0.08074
1332.55162	0.08038
1330.49203	0.07984
1328.43245	0.07923
1326.37286	0.07857
1324.31328	0.07791
1322.25369	0.07724
1320.19411	0.07655
1318.13452	0.07598
1316.07494	0.07552
1314.01535	0.07503
1311.95577	0.07465
1309.89618	0.07436
1307.83660	0.07400
1305.77701	0.07363
1303.71743	0.07322
1301.65784	0.07279
1299.59826	0.07240
1297.53867	0.07193
1295.47909	0.07139
1293.41950	0.07092
1291.35991	0.07057
1289.30033	0.07034
1287.24074	0.07023
1285.18116	0.07023
1283.12157	0.07034
1281.06199	0.07065
1279.00240	0.07117
1276.94282	0.07192
1274.88323	0.07304
1272.82365	0.07460
1270.76406	0.07655
1268.70448	0.07864
1266.64489	0.08053
1264.58531	0.08201
1262.52572	0.08303
1260.46614	0.08361
1258.40655	0.08383
1256.34697	0.08381
1254.28738	0.08377
1252.22780	0.08383
1250.16821	0.08402
1248.10863	0.08441
1246.04904	0.08504
1243.98946	0.08590
1241.92987	0.08699
1239.87029	0.08832
1237.81070	0.08992
1235.75111	0.09177
1233.69153	0.09372
1231.63194	0.09548
1229.57236	0.09672
1227.51277	0.09731
1225.45319	0.09735
1223.39360	0.09707
1221.33402	0.09658
1219.27443	0.09585
1217.21485	0.09482
1215.15526	0.09350
1213.09568	0.09184
1211.03609	0.08987
1208.97651	0.08771
1206.91692	0.08549
1204.85734	0.08325
1202.79775	0.08105
1200.73817	0.07887
1198.67858	0.07678
1196.61900	0.07488
1194.55941	0.07320
1192.49983	0.07175
1190.44024	0.07050
1188.38066	0.06939
1186.32107	0.06842
1184.26149	0.06762
1182.20190	0.06706
1180.14231	0.06686
1178.08273	0.06713
1176.02314	0.06785
1173.96356	0.06885
1171.90397	0.06985
1169.84439	0.07060
1167.78480	0.07106
1165.72522	0.07130
1163.66563	0.07145
1161.60605	0.07143
1159.54646	0.07112
1157.48688	0.07054
1155.42729	0.06975
1153.36771	0.06879
1151.30812	0.06767
1149.24854	0.06649
1147.18895	0.06523
1145.12937	0.06395
1143.06978	0.06276
1141.01020	0.06169
1138.95061	0.06070
1136.89103	0.05980
1134.83144	0.05902
1132.77186	0.05832
1130.71227	0.05775
1128.65268	0.05732
1126.59310	0.05689
1124.53351	0.05641
1122.47393	0.05591
1120.41434	0.05546
1118.35476	0.05512
1116.29517	0.05487
1114.23559	0.05460
1112.17600	0.05432
1110.11642	0.05410
1108.05683	0.05399
1105.99725	0.05396
1103.93766	0.05395
1101.87808	0.05380
1099.81849	0.05341
1097.75891	0.05295
1095.69932	0.05261
1093.63974	0.05241
1091.58015	0.05237
1089.52057	0.05257
1087.46098	0.05297
1085.40140	0.05356
1083.34181	0.05449
1081.28223	0.05569
1079.22264	0.05696
1077.16306	0.05830
1075.10347	0.05959
1073.04388	0.06068
1070.98430	0.06158
1068.92471	0.06231
1066.86513	0.06275
1064.80554	0.06289
1062.74596	0.06287
1060.68637	0.06277
1058.62679	0.06249
1056.56720	0.06201
1054.50762	0.06150
1052.44803	0.06097
1050.38845	0.06043
1048.32886	0.05998
1046.26928	0.05958
1044.20969	0.05924
1042.15011	0.05896
1040.09052	0.05857
1038.03094	0.05802
1035.97135	0.05741
1033.91177	0.05673
1031.85218	0.05591
1029.79260	0.05499
1027.73301	0.05406
1025.67343	0.05318
1023.61384	0.05249
1021.55425	0.05201
1019.49467	0.05169
1017.43508	0.05158
1015.37550	0.05159
1013.31591	0.05158
1011.25633	0.05156
1009.19674	0.05160
1007.13716	0.05168
1005.07757	0.05186
1003.01799	0.05224
1000.95840	0.05275
998.89882	0.05318
996.83923	0.05338
994.77965	0.05325
992.72006	0.05265
990.66048	0.05160
988.60089	0.05042
986.54131	0.04950
984.48172	0.04902
982.42214	0.04904
980.36255	0.04945
978.30297	0.04996
976.24338	0.05035
974.18380	0.05040
972.12421	0.05002
970.06463	0.04926
968.00504	0.04825
965.94545	0.04726
963.88587	0.04642
961.82628	0.04569
959.76670	0.04507
957.70711	0.04456
955.64753	0.04408
953.58794	0.04360
951.52836	0.04317
949.46877	0.04277
947.40919	0.04233
945.34960	0.04191
943.29002	0.04159
941.23043	0.04132
939.17085	0.04107
937.11126	0.04089
935.05168	0.04079
932.99209	0.04076
930.93251	0.04074
928.87292	0.04076
926.81334	0.04066
924.75375	0.04030
922.69417	0.03982
920.63458	0.03933
918.57500	0.03883
916.51541	0.03833
914.45582	0.03786
912.39624	0.03737
910.33665	0.03688
908.27707	0.03655
906.21748	0.03636
904.15790	0.03616
902.09831	0.03592
900.03873	0.03569
897.97914	0.03549
895.91956	0.03535
893.85997	0.03520
891.80039	0.03498
889.74080	0.03472
887.68122	0.03447
885.62163	0.03429
883.56205	0.03420
881.50246	0.03408
879.44288	0.03386
877.38329	0.03364
875.32371	0.03342
873.26412	0.03321
871.20454	0.03300
869.14495	0.03280
867.08537	0.03262
865.02578	0.03244
862.96620	0.03225
860.90661	0.03217
858.84702	0.03230
856.78744	0.03260
854.72785	0.03295
852.66827	0.03314
850.60868	0.03309
848.54910	0.03283
846.48951	0.03248
844.42993	0.03223
842.37034	0.03214
840.31076	0.03219
838.25117	0.03235
836.19159	0.03254
834.13200	0.03276
832.07242	0.03301
830.01283	0.03318
827.95325	0.03321
825.89366	0.03314
823.83408	0.03301
821.77449	0.03285
819.71491	0.03270
817.65532	0.03249
815.59574	0.03227
813.53615	0.03212
811.47657	0.03192
809.41698	0.03166
807.35740	0.03155
805.29781	0.03152
803.23822	0.03141
801.17864	0.03125
799.11905	0.03109
797.05947	0.03094
794.99988	0.03086
792.94030	0.03090
790.88071	0.03106
788.82113	0.03124
786.76154	0.03138
784.70196	0.03153
782.64237	0.03175
780.58279	0.03196
778.52320	0.03216
776.46362	0.03238
774.40403	0.03268
772.34445	0.03308
770.28486	0.03357
768.22528	0.03412
766.16569	0.03452
764.10611	0.03466
762.04652	0.03472
759.98694	0.03478
757.92735	0.03488
755.86777	0.03504
753.80818	0.03527
751.74859	0.03559
749.68901	0.03594
747.62942	0.03638
745.56984	0.03696
743.51025	0.03772
741.45067	0.03858
739.39108	0.03941
737.33150	0.04017
735.27191	0.04098
733.21233	0.04186
731.15274	0.04276
729.09316	0.04367
727.03357	0.04462
724.97399	0.04549
722.91440	0.04621
720.85482	0.04692
718.79523	0.04765
716.73565	0.04825
714.67606	0.04872
712.61648	0.04929
710.55689	0.04997
708.49731	0.05060
706.43772	0.05113
704.37814	0.05171
702.31855	0.05236
700.25897	0.05298
698.19938	0.05352
696.13979	0.05399
694.08021	0.05437
692.02062	0.05456
689.96104	0.05466
687.90145	0.05478
685.84187	0.05490
683.78228	0.05493
681.72270	0.05490
679.66311	0.05480
677.60353	0.05467
675.54394	0.05459
673.48436	0.05451
671.42477	0.05424
669.36519	0.05395
667.30560	0.05402
665.24602	0.05422
663.18643	0.05434
661.12685	0.05440
659.06726	0.05443
657.00768	0.05454
654.94809	0.05486
652.88851	0.05524
650.82892	0.05548
648.76934	0.05560
646.70975	0.05582
644.65016	0.05614
642.59058	0.05642
640.53099	0.05665
638.47141	0.05687
636.41182	0.05704
634.35224	0.05721
632.29265	0.05739
630.23307	0.05757
628.17348	0.05771
626.11390	0.05781
624.05431	0.05779
621.99473	0.05762
619.93514	0.05748
617.87556	0.05750
615.81597	0.05762
613.75639	0.05769
611.69680	0.05756
609.63722	0.05727
607.57763	0.05692
605.51805	0.05638
603.45846	0.05566
601.39888	0.05490
599.33929	0.05415
597.27971	0.05342
595.22012	0.05282
593.16054	0.05223
591.10095	0.05161
589.04136	0.05104
586.98178	0.05053
584.92219	0.05008
582.86261	0.04966
580.80302	0.04929
578.74344	0.04905
576.68385	0.04895
574.62427	0.04893
572.56468	0.04890
570.50510	0.04891
568.44551	0.04909
566.38593	0.04945
564.32634	0.05007
562.26676	0.05104
560.20717	0.05244
558.14759	0.05412
556.08800	0.05567
554.02842	0.05686
551.96883	0.05775
549.90925	0.05829
547.84966	0.05840
545.79008	0.05813
543.73049	0.05756
541.67091	0.05683
539.61132	0.05607
537.55173	0.05520
535.49215	0.05434
533.43256	0.05360
531.37298	0.05282
529.31339	0.05209
527.25381	0.05152
525.19422	0.05110
523.13464	0.05064
521.07505	0.05004
519.01547	0.04946
516.95588	0.04903
514.89630	0.04878
512.83671	0.04851
510.77713	0.04803
508.71754	0.04739
506.65796	0.04687
504.59837	0.04642
502.53879	0.04588
500.47920	0.04542
498.41962	0.04500
496.36003	0.04469
494.30045	0.04450
492.24086	0.04444
490.18128	0.04444
488.12169	0.04423
486.06211	0.04385
484.00252	0.04340
481.94293	0.04283
479.88335	0.04219
477.82376	0.04164
475.76418	0.04123
473.70459	0.04074
471.64501	0.04030
469.58542	0.03994
467.52584	0.03961
465.46625	0.03934
463.40667	0.03903
461.34708	0.03876
459.28750	0.03835
457.22791	0.03783
455.16833	0.03750
453.10874	0.03735
451.04916	0.03742
448.98957	0.03734
446.92999	0.03690
444.87040	0.03639
442.81082	0.03616
440.75123	0.03632
438.69165	0.03641
436.63206	0.03635
434.57248	0.03653
432.51289	0.03686
430.45330	0.03732
428.39372	0.03792
426.33413	0.03831
424.27455	0.03820
422.21496	0.03753
420.15538	0.03640
418.09579	0.03574
416.03621	0.03554
413.97662	0.03500
411.91704	0.03434
409.85745	0.03387
407.79787	0.03349
405.73828	0.03293
403.67870	0.03229
401.61911	0.03195
399.55953	0.03181
