3997.70013,0.00125
3995.64052,0.00056
3993.58092,0.00019
3991.52131,0.00015
3989.46170,0.00035
3987.40209,0.00062
3985.34248,0.00067
3983.28287,0.00053
3981.22327,0.00067
3979.16366,0.00120
3977.10405,0.00168
3975.04444,0.00173
3972.98483,0.00145
3970.92522,0.00121
3968.86561,0.00110
3966.80601,0.00100
3964.74640,0.00075
3962.68679,0.00034
3960.62718,-0.00005
3958.56757,0.00000
3956.50796,0.00073
3954.44835,0.00153
3952.38875,0.00159
3950.32914,0.00101
3948.26953,0.00052
3946.20992,0.00065
3944.15031,0.00132
3942.09070,0.00211
3940.03109,0.00262
3937.97149,0.00245
3935.91188,0.00159
3933.85227,0.00091
3931.79266,0.00099
3929.73305,0.00108
3927.67344,0.00064
3925.61384,0.00023
3923.55423,0.00029
3921.49462,0.00072
3919.43501,0.00141
3917.37540,0.00202
3915.31579,0.00204
3913.25618,0.00178
3911.19658,0.00176
3909.13697,0.00165
3907.07736,0.00099
3905.01775,0.00030
3902.95814,0.00039
3900.89853,0.00109
3898.83892,0.00162
3896.77932,0.00171
3894.71971,0.00185
3892.66010,0.00219
3890.60049,0.00214
3888.54088,0.00155
3886.48127,0.00122
3884.42166,0.00160
3882.36206,0.00197
3880.30245,0.00177
3878.24284,0.00154
3876.18323,0.00178
3874.12362,0.00208
3872.06401,0.00201
3870.00441,0.00183
3867.94480,0.00184
3865.88519,0.00192
3863.82558,0.00188
3861.76597,0.00170
3859.70636,0.00164
3857.64675,0.00178
3855.58715,0.00210
3853.52754,0.00246
3851.46793,0.00241
3849.40832,0.00209
3847.34871,0.00201
3845.28910,0.00205
3843.22949,0.00162
3841.16989,0.00092
3839.11028,0.00094
3837.05067,0.00163
3834.99106,0.00193
3832.93145,0.00173
3830.87184,0.00156
3828.81223,0.00163
3826.75263,0.00197
3824.69302,0.00230
3822.63341,0.00231
3820.57380,0.00231
3818.51419,0.00253
3816.45458,0.00258
3814.39498,0.00215
3812.33537,0.00148
3810.27576,0.00117
3808.21615,0.00152
3806.15654,0.00221
3804.09693,0.00271
3802.03732,0.00282
3799.97772,0.00278
3797.91811,0.00266
3795.85850,0.00234
3793.79889,0.00219
3791.73928,0.00234
3789.67967,0.00240
3787.62006,0.00250
3785.56046,0.00294
3783.50085,0.00317
3781.44124,0.00258
3779.38163,0.00162
3777.32202,0.00117
3775.26241,0.00151
3773.20280,0.00203
3771.14320,0.00188
3769.08359,0.00139
3767.02398,0.00157
3764.96437,0.00226
3762.90476,0.00270
3760.84515,0.00264
3758.78555,0.00220
3756.72594,0.00180
3754.66633,0.00181
3752.60672,0.00198
3750.54711,0.00185
3748.48750,0.00141
3746.42789,0.00131
3744.36829,0.00218
3742.30868,0.00345
3740.24907,0.00420
3738.18946,0.00422
3736.12985,0.00367
3734.07024,0.00278
3732.01063,0.00204
3729.95103,0.00186
3727.89142,0.00201
3725.83181,0.00204
3723.77220,0.00199
3721.71259,0.00194
3719.65298,0.00193
3717.59337,0.00206
3715.53377,0.00237
3713.47416,0.00231
3711.41455,0.00176
3709.35494,0.00147
3707.29533,0.00155
3705.23572,0.00132
3703.17612,0.00103
3701.11651,0.00132
3699.05690,0.00197
3696.99729,0.00239
3694.93768,0.00223
3692.87807,0.00117
3690.81846,0.00000
3688.75886,0.00016
3686.69925,0.00149
3684.63964,0.00245
3682.58003,0.00273
3680.52042,0.00292
3678.46081,0.00315
3676.40120,0.00317
3674.34160,0.00307
3672.28199,0.00301
3670.22238,0.00274
3668.16277,0.00234
3666.10316,0.00216
3664.04355,0.00223
3661.98394,0.00233
3659.92434,0.00243
3657.86473,0.00256
3655.80512,0.00265
3653.74551,0.00269
3651.68590,0.00269
3649.62629,0.00273
3647.56669,0.00291
3645.50708,0.00297
3643.44747,0.00270
3641.38786,0.00261
3639.32825,0.00294
3637.26864,0.00340
3635.20903,0.00396
3633.14943,0.00416
3631.08982,0.00367
3629.03021,0.00339
3626.97060,0.00381
3624.91099,0.00402
3622.85138,0.00360
3620.79177,0.00292
3618.73217,0.00243
3616.67256,0.00224
3614.61295,0.00257
3612.55334,0.00343
3610.49373,0.00435
3608.43412,0.00504
3606.37451,0.00531
3604.31491,0.00528
3602.25530,0.00522
3600.19569,0.00498
3598.13608,0.00472
3596.07647,0.00490
3594.01686,0.00537
3591.95726,0.00578
3589.89765,0.00585
3587.83804,0.00589
3585.77843,0.00633
3583.71882,0.00694
3581.65921,0.00722
3579.59960,0.00732
3577.54000,0.00743
3575.48039,0.00735
3573.42078,0.00713
3571.36117,0.00706
3569.30156,0.00724
3567.24195,0.00765
3565.18234,0.00793
3563.12274,0.00793
3561.06313,0.00803
3559.00352,0.00835
3556.94391,0.00858
3554.88430,0.00851
3552.82469,0.00844
3550.76508,0.00888
3548.70548,0.00958
3546.64587,0.00987
3544.58626,0.00995
3542.52665,0.01031
3540.46704,0.01095
3538.40743,0.01150
3536.34783,0.01155
3534.28822,0.01108
3532.22861,0.01055
3530.16900,0.01055
3528.10939,0.01096
3526.04978,0.01161
3523.99017,0.01259
3521.93057,0.01345
3519.87096,0.01389
3517.81135,0.01411
3515.75174,0.01407
3513.69213,0.01378
3511.63252,0.01321
3509.57291,0.01272
3507.51331,0.01299
3505.45370,0.01370
3503.39409,0.01394
3501.33448,0.01378
3499.27487,0.01387
3497.21526,0.01413
3495.15565,0.01427
3493.09605,0.01426
3491.03644,0.01411
3488.97683,0.01409
3486.91722,0.01436
3484.85761,0.01466
3482.79800,0.01490
3480.73840,0.01519
3478.67879,0.01511
3476.61918,0.01461
3474.55957,0.01442
3472.49996,0.01446
3470.44035,0.01454
3468.38074,0.01495
3466.32114,0.01524
3464.26153,0.01512
3462.20192,0.01533
3460.14231,0.01588
3458.08270,0.01576
3456.02309,0.01523
3453.96348,0.01531
3451.90388,0.01567
3449.84427,0.01568
3447.78466,0.01550
3445.72505,0.01550
3443.66544,0.01584
3441.60583,0.01631
3439.54622,0.01651
3437.48662,0.01652
3435.42701,0.01669
3433.36740,0.01697
3431.30779,0.01730
3429.24818,0.01758
3427.18857,0.01760
3425.12897,0.01760
3423.06936,0.01782
3421.00975,0.01797
3418.95014,0.01804
3416.89053,0.01816
3414.83092,0.01834
3412.77131,0.01837
3410.71171,0.01822
3408.65210,0.01832
3406.59249,0.01869
3404.53288,0.01898
3402.47327,0.01941
3400.41366,0.02009
3398.35405,0.02056
3396.29445,0.02057
3394.23484,0.02058
3392.17523,0.02090
3390.11562,0.02098
3388.05601,0.02089
3385.99640,0.02122
3383.93679,0.02161
3381.87719,0.02163
3379.81758,0.02174
3377.75797,0.02218
3375.69836,0.02251
3373.63875,0.02260
3371.57914,0.02279
3369.51954,0.02317
3367.45993,0.02340
3365.40032,0.02336
3363.34071,0.02348
3361.28110,0.02381
3359.22149,0.02406
3357.16188,0.02459
3355.10228,0.02551
3353.04267,0.02619
3350.98306,0.02645
3348.92345,0.02662
3346.86384,0.02709
3344.80423,0.02814
3342.74462,0.02935
3340.68502,0.03028
3338.62541,0.03116
3336.56580,0.03218
3334.50619,0.03320
3332.44658,0.03427
3330.38697,0.03548
3328.32736,0.03652
3326.26776,0.03769
3324.20815,0.03950
3322.14854,0.04140
3320.08893,0.04317
3318.02932,0.04527
3315.96971,0.04754
3313.91011,0.04959
3311.85050,0.05155
3309.79089,0.05367
3307.73128,0.05584
3305.67167,0.05776
3303.61206,0.05968
3301.55245,0.06210
3299.49285,0.06486
3297.43324,0.06760
3295.37363,0.07005
3293.31402,0.07206
3291.25441,0.07398
3289.19480,0.07608
3287.13519,0.07833
3285.07559,0.08038
3283.01598,0.08168
3280.95637,0.08241
3278.89676,0.08336
3276.83715,0.08466
3274.77754,0.08565
3272.71793,0.08599
3270.65833,0.08570
3268.59872,0.08466
3266.53911,0.08334
3264.47950,0.08231
3262.41989,0.08124
3260.36028,0.08023
3258.30068,0.07930
3256.24107,0.07781
3254.18146,0.07629
3252.12185,0.07531
3250.06224,0.07429
3248.00263,0.07300
3245.94302,0.07169
3243.88342,0.07045
3241.82381,0.06932
3239.76420,0.06824
3237.70459,0.06698
3235.64498,0.06552
3233.58537,0.06427
3231.52576,0.06341
3229.46616,0.06272
3227.40655,0.06198
3225.34694,0.06099
3223.28733,0.05971
3221.22772,0.05870
3219.16811,0.05816
3217.10850,0.05762
3215.04890,0.05697
3212.98929,0.05627
3210.92968,0.05537
3208.87007,0.05433
3206.81046,0.05349
3204.75085,0.05287
3202.69125,0.05233
3200.63164,0.05173
3198.57203,0.05099
3196.51242,0.05024
3194.45281,0.04957
3192.39320,0.04899
3190.33359,0.04859
3188.27399,0.04804
3186.21438,0.04709
3184.15477,0.04616
3182.09516,0.04548
3180.03555,0.04478
3177.97594,0.04409
3175.91633,0.04365
3173.85673,0.04329
3171.79712,0.04281
3169.73751,0.04210
3167.67790,0.04127
3165.61829,0.04071
3163.55868,0.04048
3161.49907,0.04039
3159.43947,0.04024
3157.37986,0.03983
3155.32025,0.03926
3153.26064,0.03873
3151.20103,0.03812
3149.14142,0.03764
3147.08182,0.03737
3145.02221,0.03679
3142.96260,0.03607
3140.90299,0.03594
3138.84338,0.03624
3136.78377,0.03614
3134.72416,0.03548
3132.66456,0.03483
3130.60495,0.03440
3128.54534,0.03404
3126.48573,0.03394
3124.42612,0.03402
3122.36651,0.03388
3120.30690,0.03357
3118.24730,0.03351
3116.18769,0.03388
3114.12808,0.03407
3112.06847,0.03375
3110.00886,0.03363
3107.94925,0.03392
3105.88965,0.03421
3103.83004,0.03437
3101.77043,0.03450
3099.71082,0.03447
3097.65121,0.03421
3095.59160,0.03406
3093.53199,0.03418
3091.47239,0.03441
3089.41278,0.03471
3087.35317,0.03509
3085.29356,0.03560
3083.23395,0.03612
3081.17434,0.03634
3079.11473,0.03638
3077.05513,0.03648
3074.99552,0.03647
3072.93591,0.03649
3070.87630,0.03660
3068.81669,0.03666
3066.75708,0.03675
3064.69747,0.03652
3062.63787,0.03596
3060.57826,0.03570
3058.51865,0.03568
3056.45904,0.03574
3054.39943,0.03575
3052.33982,0.03528
3050.28022,0.03456
3048.22061,0.03418
3046.16100,0.03420
3044.10139,0.03411
3042.04178,0.03347
3039.98217,0.03276
3037.92256,0.03234
3035.86296,0.03191
3033.80335,0.03151
3031.74374,0.03136
3029.68413,0.03121
3027.62452,0.03089
3025.56491,0.03053
3023.50530,0.03029
3021.44570,0.03003
3019.38609,0.02968
3017.32648,0.02962
3015.26687,0.02964
3013.20726,0.02926
3011.14765,0.02887
3009.08804,0.02872
3007.02844,0.02856
3004.96883,0.02837
3002.90922,0.02836
3000.84961,0.02847
2998.79000,0.02840
2996.73039,0.02818
2994.67079,0.02843
2992.61118,0.02893
2990.55157,0.02918
2988.49196,0.02941
2986.43235,0.02976
2984.37274,0.03009
2982.31313,0.03039
2980.25353,0.03065
2978.19392,0.03099
2976.13431,0.03137
2974.07470,0.03151
2972.01509,0.03127
2969.95548,0.03113
2967.89587,0.03142
2965.83627,0.03174
2963.77666,0.03171
2961.71705,0.03142
2959.65744,0.03119
2957.59783,0.03124
2955.53822,0.03137
2953.47861,0.03120
2951.41901,0.03095
2949.35940,0.03113
2947.29979,0.03145
2945.24018,0.03145
2943.18057,0.03152
2941.12096,0.03205
2939.06136,0.03256
2937.00175,0.03288
2934.94214,0.03351
2932.88253,0.03463
2930.82292,0.03568
2928.76331,0.03621
2926.70370,0.03662
2924.64410,0.03729
2922.58449,0.03802
2920.52488,0.03834
2918.46527,0.03819
2916.40566,0.03791
2914.34605,0.03720
2912.28644,0.03575
2910.22684,0.03432
2908.16723,0.03352
2906.10762,0.03297
2904.04801,0.03256
2901.98840,0.03226
2899.92879,0.03165
2897.86918,0.03097
2895.80958,0.03070
2893.74997,0.03057
2891.69036,0.03056
2889.63075,0.03062
2887.57114,0.03040
2885.51153,0.03020
2883.45193,0.03033
2881.39232,0.03033
2879.33271,0.02992
2877.27310,0.02967
2875.21349,0.02989
2873.15388,0.03013
2871.09427,0.03006
2869.03467,0.02983
2866.97506,0.02963
2864.91545,0.02937
2862.85584,0.02918
2860.79623,0.02942
2858.73662,0.02973
2856.67701,0.02963
2854.61741,0.02951
2852.55780,0.02995
2850.49819,0.03069
2848.43858,0.03096
2846.37897,0.03025
2844.31936,0.02897
2842.25975,0.02785
2840.20015,0.02717
2838.14054,0.02684
2836.08093,0.02669
2834.02132,0.02641
2831.96171,0.02593
2829.90210,0.02560
2827.84250,0.02559
2825.78289,0.02560
2823.72328,0.02544
2821.66367,0.02511
2819.60406,0.02481
2817.54445,0.02480
2815.48484,0.02489
2813.42524,0.02475
2811.36563,0.02448
2809.30602,0.02437
2807.24641,0.02449
2805.18680,0.02473
2803.12719,0.02488
2801.06758,0.02486
2799.00798,0.02488
2796.94837,0.02491
2794.88876,0.02464
2792.82915,0.02417
2790.76954,0.02377
2788.70993,0.02355
2786.65032,0.02353
2784.59072,0.02358
2782.53111,0.02369
2780.47150,0.02395
2778.41189,0.02400
2776.35228,0.02361
2774.29267,0.02348
2772.23307,0.02378
2770.17346,0.02391
2768.11385,0.02375
2766.05424,0.02363
2763.99463,0.02344
2761.93502,0.02310
2759.87541,0.02292
2757.81581,0.02289
2755.75620,0.02281
2753.69659,0.02277
2751.63698,0.02296
2749.57737,0.02306
2747.51776,0.02287
2745.45815,0.02272
2743.39855,0.02270
2741.33894,0.02258
2739.27933,0.02228
2737.21972,0.02213
2735.16011,0.02226
2733.10050,0.02237
2731.04089,0.02236
2728.98129,0.02221
2726.92168,0.02204
2724.86207,0.02199
2722.80246,0.02190
2720.74285,0.02168
2718.68324,0.02161
2716.62364,0.02170
2714.56403,0.02160
2712.50442,0.02126
2710.44481,0.02087
2708.38520,0.02074
2706.32559,0.02084
2704.26598,0.02088
2702.20638,0.02078
2700.14677,0.02072
2698.08716,0.02071
2696.02755,0.02075
2693.96794,0.02085
2691.90833,0.02090
2689.84872,0.02089
2687.78912,0.02082
2685.72951,0.02054
2683.66990,0.02037
2681.61029,0.02044
2679.55068,0.02036
2677.49107,0.02007
2675.43146,0.01991
2673.37186,0.02000
2671.31225,0.02013
2669.25264,0.02012
2667.19303,0.02021
2665.13342,0.02040
2663.07381,0.02038
2661.01421,0.02022
2658.95460,0.02017
2656.89499,0.02023
2654.83538,0.02018
2652.77577,0.01993
2650.71616,0.01973
2648.65655,0.01971
2646.59695,0.01972
2644.53734,0.01969
2642.47773,0.01966
2640.41812,0.01956
2638.35851,0.01933
2636.29890,0.01914
2634.23929,0.01907
2632.17969,0.01901
2630.12008,0.01906
2628.06047,0.01920
2626.00086,0.01906
2623.94125,0.01876
2621.88164,0.01878
2619.82203,0.01897
2617.76243,0.01902
2615.70282,0.01880
2613.64321,0.01846
2611.58360,0.01826
2609.52399,0.01820
2607.46438,0.01808
2605.40478,0.01806
2603.34517,0.01832
2601.28556,0.01837
2599.22595,0.01785
2597.16634,0.01715
2595.10673,0.01673
2593.04712,0.01657
2590.98752,0.01659
2588.92791,0.01682
2586.86830,0.01705
2584.80869,0.01712
2582.74908,0.01727
2580.68947,0.01737
2578.62986,0.01715
2576.57026,0.01684
2574.51065,0.01652
2572.45104,0.01628
2570.39143,0.01645
2568.33182,0.01667
2566.27221,0.01659
2564.21260,0.01675
2562.15300,0.01716
2560.09339,0.01707
2558.03378,0.01661
2555.97417,0.01639
2553.91456,0.01648
2551.85495,0.01638
2549.79535,0.01600
2547.73574,0.01579
2545.67613,0.01577
2543.61652,0.01565
2541.55691,0.01542
2539.49730,0.01559
2537.43769,0.01611
2535.37809,0.01637
2533.31848,0.01622
2531.25887,0.01584
2529.19926,0.01575
2527.13965,0.01615
2525.08004,0.01631
2523.02043,0.01595
2520.96083,0.01570
2518.90122,0.01586
2516.84161,0.01601
2514.78200,0.01586
2512.72239,0.01578
2510.66278,0.01589
2508.60317,0.01601
2506.54357,0.01610
2504.48396,0.01614
2502.42435,0.01603
2500.36474,0.01578
2498.30513,0.01560
2496.24552,0.01563
2494.18592,0.01543
2492.12631,0.01505
2490.06670,0.01488
2488.00709,0.01472
2485.94748,0.01453
2483.88787,0.01465
2481.82826,0.01500
2479.76866,0.01532
2477.70905,0.01564
2475.64944,0.01592
2473.58983,0.01575
2471.53022,0.01511
2469.47061,0.01472
2467.41100,0.01475
2465.35140,0.01486
2463.29179,0.01511
2461.23218,0.01535
2459.17257,0.01520
2457.11296,0.01493
2455.05335,0.01515
2452.99374,0.01569
2450.93414,0.01586
2448.87453,0.01553
2446.81492,0.01504
2444.75531,0.01455
2442.69570,0.01435
2440.63609,0.01477
2438.57649,0.01511
2436.51688,0.01466
2434.45727,0.01399
2432.39766,0.01378
2430.33805,0.01409
2428.27844,0.01474
2426.21883,0.01513
2424.15923,0.01493
2422.09962,0.01455
2420.04001,0.01430
2417.98040,0.01434
2415.92079,0.01442
2413.86118,0.01424
2411.80157,0.01418
2409.74197,0.01446
2407.68236,0.01462
2405.62275,0.01446
2403.56314,0.01436
2401.50353,0.01451
2399.44392,0.01429
2397.38431,0.01406
2395.32471,0.01389
2393.26510,0.01389
2391.20549,0.01394
2389.14588,0.01391
2387.08627,0.01396
2385.02666,0.01420
2382.96706,0.01434
2380.90745,0.01414
2378.84784,0.01364
2376.78823,0.01302
2374.72862,0.01162
2372.66901,0.01056
2370.60940,0.01022
2368.54980,0.00915
2366.49019,0.00888
2364.43058,0.00879
2362.37097,0.00881
2360.31136,0.00945
2358.25175,0.00881
2356.19214,0.00880
2354.13254,0.00976
2352.07293,0.01163
2350.01332,0.01505
2347.95371,0.01481
2345.89410,0.01197
2343.83449,0.01066
2341.77488,0.00965
2339.71528,0.01052
2337.65567,0.01087
2335.59606,0.01037
2333.53645,0.01117
2331.47684,0.01132
2329.41723,0.01248
2327.35763,0.01235
2325.29802,0.01291
2323.23841,0.01288
2321.17880,0.01292
2319.11919,0.01311
2317.05958,0.01319
2314.99997,0.01320
2312.94037,0.01305
2310.88076,0.01273
2308.82115,0.01243
2306.76154,0.01255
2304.70193,0.01315
2302.64232,0.01352
2300.58271,0.01365
2298.52311,0.01368
2296.46350,0.01354
2294.40389,0.01345
2292.34428,0.01392
2290.28467,0.01446
2288.22506,0.01436
2286.16545,0.01365
2284.10585,0.01292
2282.04624,0.01252
2279.98663,0.01252
2277.92702,0.01290
2275.86741,0.01332
2273.80780,0.01322
2271.74820,0.01262
2269.68859,0.01212
2267.62898,0.01202
2265.56937,0.01208
2263.50976,0.01180
2261.45015,0.01122
2259.39054,0.01061
2257.33094,0.01025
2255.27133,0.01067
2253.21172,0.01166
2251.15211,0.01204
2249.09250,0.01135
2247.03289,0.01059
2244.97328,0.01028
2242.91368,0.01045
2240.85407,0.01031
2238.79446,0.00996
2236.73485,0.00986
2234.67524,0.00976
2232.61563,0.00976
2230.55602,0.01004
2228.49642,0.00997
2226.43681,0.00957
2224.37720,0.00971
2222.31759,0.01032
2220.25798,0.01079
2218.19837,0.01082
2216.13877,0.01020
2214.07916,0.00939
2212.01955,0.00919
2209.95994,0.00951
2207.90033,0.01012
2205.84072,0.01052
2203.78111,0.00992
2201.72151,0.00861
2199.66190,0.00760
2197.60229,0.00786
2195.54268,0.00896
2193.48307,0.00940
2191.42346,0.00916
2189.36385,0.00894
2187.30425,0.00858
2185.24464,0.00801
2183.18503,0.00793
2181.12542,0.00855
2179.06581,0.00892
2177.00620,0.00842
2174.94659,0.00762
2172.88699,0.00701
2170.82738,0.00681
2168.76777,0.00716
2166.70816,0.00734
2164.64855,0.00712
2162.58894,0.00645
2160.52934,0.00468
2158.46973,0.00346
2156.41012,0.00461
2154.35051,0.00621
2152.29090,0.00662
2150.23129,0.00666
2148.17168,0.00695
2146.11208,0.00736
2144.05247,0.00752
2141.99286,0.00687
2139.93325,0.00609
2137.87364,0.00664
2135.81403,0.00785
2133.75442,0.00792
2131.69482,0.00741
2129.63521,0.00769
2127.57560,0.00851
2125.51599,0.00940
2123.45638,0.01010
2121.39677,0.01014
2119.33716,0.00998
2117.27756,0.01035
2115.21795,0.01064
2113.15834,0.01036
2111.09873,0.01012
2109.03912,0.01009
2106.97951,0.00977
2104.91991,0.00934
2102.86030,0.00918
2100.80069,0.00893
2098.74108,0.00850
2096.68147,0.00821
2094.62186,0.00819
2092.56225,0.00862
2090.50265,0.00950
2088.44304,0.01008
2086.38343,0.00964
2084.32382,0.00872
2082.26421,0.00827
2080.20460,0.00835
2078.14499,0.00854
2076.08539,0.00869
2074.02578,0.00875
2071.96617,0.00865
2069.90656,0.00848
2067.84695,0.00818
2065.78734,0.00777
2063.72773,0.00790
2061.66813,0.00858
2059.60852,0.00881
2057.54891,0.00844
2055.48930,0.00830
2053.42969,0.00851
2051.37008,0.00833
2049.31048,0.00741
2047.25087,0.00646
2045.19126,0.00609
2043.13165,0.00615
2041.07204,0.00613
2039.01243,0.00544
2036.95282,0.00473
2034.89322,0.00498
2032.83361,0.00524
2030.77400,0.00469
2028.71439,0.00453
2026.65478,0.00500
2024.59517,0.00498
2022.53556,0.00473
2020.47596,0.00496
2018.41635,0.00525
2016.35674,0.00484
2014.29713,0.00423
2012.23752,0.00438
2010.17791,0.00480
2008.11830,0.00461
2006.05870,0.00437
2003.99909,0.00492
2001.93948,0.00572
1999.87987,0.00601
1997.82026,0.00578
1995.76065,0.00542
1993.70105,0.00555
1991.64144,0.00623
1989.58183,0.00646
1987.52222,0.00616
1985.46261,0.00625
1983.40300,0.00670
1981.34339,0.00712
1979.28379,0.00682
1977.22418,0.00543
1975.16457,0.00431
1973.10496,0.00433
1971.04535,0.00484
1968.98574,0.00503
1966.92613,0.00454
1964.86653,0.00416
1962.80692,0.00425
1960.74731,0.00363
1958.68770,0.00255
1956.62809,0.00284
1954.56848,0.00410
1952.50887,0.00498
1950.44927,0.00553
1948.38966,0.00562
1946.33005,0.00510
1944.27044,0.00470
1942.21083,0.00482
1940.15122,0.00519
1938.09162,0.00548
1936.03201,0.00566
1933.97240,0.00592
1931.91279,0.00605
1929.85318,0.00600
1927.79357,0.00612
1925.73396,0.00616
1923.67436,0.00578
1921.61475,0.00540
1919.55514,0.00563
1917.49553,0.00625
1915.43592,0.00648
1913.37631,0.00628
1911.31670,0.00618
1909.25710,0.00644
1907.19749,0.00674
1905.13788,0.00675
1903.07827,0.00655
1901.01866,0.00645
1898.95905,0.00653
1896.89944,0.00642
1894.83984,0.00601
1892.78023,0.00578
1890.72062,0.00591
1888.66101,0.00627
1886.60140,0.00657
1884.54179,0.00651
1882.48219,0.00615
1880.42258,0.00579
1878.36297,0.00564
1876.30336,0.00550
1874.24375,0.00529
1872.18414,0.00521
1870.12453,0.00531
1868.06493,0.00548
1866.00532,0.00550
1863.94571,0.00534
1861.88610,0.00517
1859.82649,0.00510
1857.76688,0.00503
1855.70727,0.00498
1853.64767,0.00512
1851.58806,0.00539
1849.52845,0.00537
1847.46884,0.00492
1845.40923,0.00454
1843.34962,0.00461
1841.29002,0.00479
1839.23041,0.00475
1837.17080,0.00466
1835.11119,0.00473
1833.05158,0.00482
1830.99197,0.00479
1828.93236,0.00467
1826.87276,0.00454
1824.81315,0.00445
1822.75354,0.00440
1820.69393,0.00440
1818.63432,0.00431
1816.57471,0.00414
1814.51510,0.00400
1812.45550,0.00394
1810.39589,0.00394
1808.33628,0.00389
1806.27667,0.00374
1804.21706,0.00359
1802.15745,0.00355
1800.09784,0.00355
1798.03824,0.00348
1795.97863,0.00333
1793.91902,0.00317
1791.85941,0.00305
1789.79980,0.00302
1787.74019,0.00309
1785.68059,0.00312
1783.62098,0.00302
1781.56137,0.00286
1779.50176,0.00273
1777.44215,0.00265
1775.38254,0.00263
1773.32293,0.00261
1771.26333,0.00254
1769.20372,0.00245
1767.14411,0.00234
1765.08450,0.00219
1763.02489,0.00201
1760.96528,0.00187
1758.90567,0.00182
1756.84607,0.00176
1754.78646,0.00159
1752.72685,0.00142
1750.66724,0.00132
1748.60763,0.00122
1746.54802,0.00106
1744.48841,0.00091
1742.42881,0.00082
1740.36920,0.00076
1738.30959,0.00062
1736.24998,0.00036
1734.19037,0.00013
1732.13076,0.00001
1730.07116,0.00000
1728.01155,0.00005
1725.95194,0.00016
1723.89233,0.00019
1721.83272,0.00012
1719.77311,0.00011
1717.71350,0.00033
1715.65390,0.00081
1713.59429,0.00152
1711.53468,0.00256
1709.47507,0.00417
1707.41546,0.00677
1705.35585,0.01054
1703.29624,0.01476
1701.23664,0.01879
1699.17703,0.02193
1697.11742,0.02321
1695.05781,0.02309
1692.99820,0.02280
1690.93859,0.02288
1688.87898,0.02336
1686.81938,0.02415
1684.75977,0.02531
1682.70016,0.02682
1680.64055,0.02838
1678.58094,0.02994
1676.52133,0.03165
1674.46173,0.03355
1672.40212,0.03538
1670.34251,0.03732
1668.28290,0.03962
1666.22329,0.04191
1664.16368,0.04414
1662.10407,0.04659
1660.04447,0.04907
1657.98486,0.05118
1655.92525,0.05316
1653.86564,0.05576
1651.80603,0.05885
1649.74642,0.06130
1647.68681,0.06362
1645.62721,0.06646
1643.56760,0.06934
1641.50799,0.07206
1639.44838,0.07482
1637.38877,0.07812
1635.32916,0.08236
1633.26955,0.08655
1631.20995,0.09001
1629.15034,0.09338
1627.09073,0.09690
1625.03112,0.10027
1622.97151,0.10333
1620.91190,0.10560
1618.85230,0.10665
1616.79269,0.10665
1614.73308,0.10578
1612.67347,0.10405
1610.61386,0.10149
1608.55425,0.09810
1606.49464,0.09395
1604.43504,0.08936
1602.37543,0.08466
1600.31582,0.08008
1598.25621,0.07574
1596.19660,0.07166
1594.13699,0.06786
1592.07738,0.06430
1590.01778,0.06088
1587.95817,0.05764
1585.89856,0.05482
1583.83895,0.05258
1581.77934,0.05089
1579.71973,0.04966
1577.66012,0.04882
1575.60052,0.04830
1573.54091,0.04801
1571.48130,0.04805
1569.42169,0.04862
1567.36208,0.04964
1565.30247,0.05077
1563.24287,0.05192
1561.18326,0.05327
1559.12365,0.05535
1557.06404,0.05778
1555.00443,0.05984
1552.94482,0.06169
1550.88521,0.06352
1548.82561,0.06527
1546.76600,0.06693
1544.70639,0.06873
1542.64678,0.07098
1540.58717,0.07380
1538.52756,0.07654
1536.46795,0.07848
1534.40835,0.08021
1532.34874,0.08214
1530.28913,0.08392
1528.22952,0.08553
1526.16991,0.08716
1524.11030,0.08875
1522.05069,0.09053
1519.99109,0.09277
1517.93148,0.09533
1515.87187,0.09787
1513.81226,0.09969
1511.75265,0.10035
1509.69304,0.10004
1507.63344,0.09911
1505.57383,0.09773
1503.51422,0.09610
1501.45461,0.09427
1499.39500,0.09203
1497.33539,0.08936
1495.27578,0.08655
1493.21618,0.08376
1491.15657,0.08067
1489.09696,0.07731
1487.03735,0.07406
1484.97774,0.07103
1482.91813,0.06809
1480.85852,0.06533
1478.79892,0.06298
1476.73931,0.06107
1474.67970,0.05938
1472.62009,0.05773
1470.56048,0.05631
1468.50087,0.05524
1466.44126,0.05430
1464.38166,0.05337
1462.32205,0.05254
1460.26244,0.05202
1458.20283,0.05230
1456.14322,0.05368
1454.08361,0.05558
1452.02401,0.05757
1449.96440,0.05968
1447.90479,0.06165
1445.84518,0.06315
1443.78557,0.06419
1441.72596,0.06492
1439.66635,0.06520
1437.60675,0.06476
1435.54714,0.06357
1433.48753,0.06184
1431.42792,0.05970
1429.36831,0.05743
1427.30870,0.05548
1425.24909,0.05402
1423.18949,0.05300
1421.12988,0.05232
1419.07027,0.05192
1417.01066,0.05177
1414.95105,0.05175
1412.89144,0.05172
1410.83183,0.05168
1408.77223,0.05169
1406.71262,0.05172
1404.65301,0.05166
1402.59340,0.05143
1400.53379,0.05103
1398.47418,0.05049
1396.41458,0.04996
1394.35497,0.04955
1392.29536,0.04920
1390.23575,0.04885
1388.17614,0.04847
1386.11653,0.04811
1384.05692,0.04781
1381.99732,0.04747
1379.93771,0.04706
1377.87810,0.04672
1375.81849,0.04652
1373.75888,0.04640
1371.69927,0.04643
1369.63966,0.04654
1367.58006,0.04656
1365.52045,0.04627
1363.46084,0.04546
1361.40123,0.04429
1359.34162,0.04319
1357.28201,0.04228
1355.22240,0.04150
1353.16280,0.04085
1351.10319,0.04036
1349.04358,0.04005
1346.98397,0.03985
1344.92436,0.03972
1342.86475,0.03961
1340.80515,0.03957
1338.74554,0.03958
1336.68593,0.03951
1334.62632,0.03936
1332.56671,0.03920
1330.50710,0.03898
1328.44749,0.03864
1326.38789,0.03825
1324.32828,0.03784
1322.26867,0.03738
1320.20906,0.03689
1318.14945,0.03648
1316.08984,0.03615
1314.03023,0.03589
1311.97063,0.03564
1309.91102,0.03539
1307.85141,0.03518
1305.79180,0.03499
1303.73219,0.03473
1301.67258,0.03440
1299.61297,0.03406
1297.55337,0.03371
1295.49376,0.03334
1293.43415,0.03296
1291.37454,0.03258
1289.31493,0.03228
1287.25532,0.03216
1285.19572,0.03218
1283.13611,0.03229
1281.07650,0.03253
1279.01689,0.03290
1276.95728,0.03341
1274.89767,0.03415
1272.83806,0.03520
1270.77846,0.03645
1268.71885,0.03776
1266.65924,0.03903
1264.59963,0.04003
1262.54002,0.04062
1260.48041,0.04089
1258.42080,0.04097
1256.36120,0.04090
1254.30159,0.04085
1252.24198,0.04089
1250.18237,0.04093
1248.12276,0.04107
1246.06315,0.04145
1244.00354,0.04209
1241.94394,0.04293
1239.88433,0.04390
1237.82472,0.04498
1235.76511,0.04614
1233.70550,0.04730
1231.64589,0.04830
1229.58629,0.04894
1227.52668,0.04923
1225.46707,0.04938
1223.40746,0.04942
1221.34785,0.04917
1219.28824,0.04856
1217.22863,0.04781
1215.16903,0.04698
1213.10942,0.04591
1211.04981,0.04456
1208.99020,0.04310
1206.93059,0.04162
1204.87098,0.04017
1202.81137,0.03870
1200.75177,0.03723
1198.69216,0.03589
1196.63255,0.03473
1194.57294,0.03371
1192.51333,0.03281
1190.45372,0.03202
1188.39411,0.03128
1186.33451,0.03057
1184.27490,0.02996
1182.21529,0.02957
1180.15568,0.02940
1178.09607,0.02949
1176.03646,0.02989
1173.97686,0.03048
1171.91725,0.03106
1169.85764,0.03151
1167.79803,0.03178
1165.73842,0.03190
1163.67881,0.03189
1161.61920,0.03178
1159.55960,0.03161
1157.49999,0.03134
1155.44038,0.03088
1153.38077,0.03024
1151.32116,0.02957
1149.26155,0.02890
1147.20194,0.02816
1145.14234,0.02737
1143.08273,0.02667
1141.02312,0.02600
1138.96351,0.02525
1136.90390,0.02457
1134.84429,0.02418
1132.78468,0.02395
1130.72508,0.02361
1128.66547,0.02314
1126.60586,0.02270
1124.54625,0.02242
1122.48664,0.02222
1120.42703,0.02193
1118.36743,0.02163
1116.30782,0.02144
1114.24821,0.02131
1112.18860,0.02111
1110.12899,0.02084
1108.06938,0.02062
1106.00977,0.02055
1103.95017,0.02062
1101.89056,0.02065
1099.83095,0.02048
1097.77134,0.02018
1095.71173,0.01989
1093.65212,0.01962
1091.59251,0.01945
1089.53291,0.01949
1087.47330,0.01975
1085.41369,0.02021
1083.35408,0.02085
1081.29447,0.02167
1079.23486,0.02255
1077.17525,0.02337
1075.11565,0.02411
1073.05604,0.02472
1070.99643,0.02522
1068.93682,0.02566
1066.87721,0.02597
1064.81760,0.02610
1062.75800,0.02603
1060.69839,0.02583
1058.63878,0.02562
1056.57917,0.02535
1054.51956,0.02505
1052.45995,0.02474
1050.40034,0.02438
1048.34074,0.02404
1046.28113,0.02392
1044.22152,0.02391
1042.16191,0.02372
1040.10230,0.02335
1038.04269,0.02294
1035.98308,0.02243
1033.92348,0.02172
1031.86387,0.02097
1029.80426,0.02040
1027.74465,0.01993
1025.68504,0.01944
1023.62543,0.01894
1021.56582,0.01858
1019.50622,0.01844
1017.44661,0.01846
1015.38700,0.01850
1013.32739,0.01851
1011.26778,0.01844
1009.20817,0.01836
1007.14857,0.01830
1005.08896,0.01834
1003.02935,0.01861
1000.96974,0.01902
998.91013,0.01928
996.85052,0.01931
994.79091,0.01914
992.73131,0.01869
990.67170,0.01800
988.61209,0.01728
986.55248,0.01671
984.49287,0.01638
982.43326,0.01633
980.37365,0.01652
978.31405,0.01688
976.25444,0.01717
974.19483,0.01727
972.13522,0.01712
970.07561,0.01662
968.01600,0.01594
965.95639,0.01536
963.89679,0.01485
961.83718,0.01434
959.77757,0.01395
957.71796,0.01370
955.65835,0.01344
953.59874,0.01314
951.53914,0.01286
949.47953,0.01260
947.41992,0.01237
945.36031,0.01213
943.30070,0.01191
941.24109,0.01175
939.18148,0.01161
937.12188,0.01140
935.06227,0.01124
933.00266,0.01124
930.94305,0.01127
928.88344,0.01124
926.82383,0.01119
924.76422,0.01104
922.70462,0.01069
920.64501,0.01027
918.58540,0.00985
916.52579,0.00945
914.46618,0.00911
912.40657,0.00882
910.34696,0.00858
908.28736,0.00836
906.22775,0.00817
904.16814,0.00804
902.10853,0.00795
900.04892,0.00790
897.98931,0.00780
895.92971,0.00756
893.87010,0.00728
891.81049,0.00705
889.75088,0.00693
887.69127,0.00690
885.63166,0.00690
883.57205,0.00676
881.51245,0.00653
879.45284,0.00639
877.39323,0.00629
875.33362,0.00614
873.27401,0.00596
871.21440,0.00580
869.15479,0.00567
867.09519,0.00544
865.03558,0.00509
862.97597,0.00486
860.91636,0.00490
858.85675,0.00505
856.79714,0.00535
854.73753,0.00572
852.67793,0.00587
850.61832,0.00579
848.55871,0.00566
846.49910,0.00545
844.43949,0.00519
842.37988,0.00509
840.32028,0.00516
838.26067,0.00518
836.20106,0.00515
834.14145,0.00528
832.08184,0.00558
830.02223,0.00586
827.96262,0.00594
825.90302,0.00575
823.84341,0.00545
821.78380,0.00527
819.72419,0.00522
817.66458,0.00510
815.60497,0.00493
813.54536,0.00487
811.48576,0.00483
809.42615,0.00466
807.36654,0.00454
805.30693,0.00446
803.24732,0.00426
801.18771,0.00406
799.12810,0.00396
797.06850,0.00392
795.00889,0.00390
792.94928,0.00391
790.88967,0.00395
788.83006,0.00400
786.77045,0.00406
784.71085,0.00415
782.65124,0.00429
780.59163,0.00449
778.53202,0.00470
776.47241,0.00489
774.41280,0.00508
772.35319,0.00539
770.29359,0.00576
768.23398,0.00600
766.17437,0.00605
764.11476,0.00599
762.05515,0.00601
759.99554,0.00619
757.93593,0.00639
755.87633,0.00653
753.81672,0.00673
751.75711,0.00689
749.69750,0.00692
747.63789,0.00702
745.57828,0.00738
743.51867,0.00793
741.45907,0.00853
739.39946,0.00917
737.33985,0.00978
735.28024,0.01029
733.22063,0.01085
731.16102,0.01141
729.10142,0.01192
727.04181,0.01250
724.98220,0.01310
722.92259,0.01363
720.86298,0.01404
718.80337,0.01458
716.74376,0.01498
714.68416,0.01537
712.62455,0.01581
710.56494,0.01623
708.50533,0.01656
706.44572,0.01691
704.38611,0.01737
702.32650,0.01776
700.26690,0.01806
698.20729,0.01839
696.14768,0.01872
694.08807,0.01893
692.02846,0.01898
689.96885,0.01904
687.90924,0.01915
685.84964,0.01919
683.79003,0.01921
681.73042,0.01937
679.67081,0.01948
677.61120,0.01936
675.55159,0.01914
673.49199,0.01897
671.43238,0.01944
669.37277,0.02009
667.31316,0.01730
665.25355,0.01908
663.19394,0.01890
661.13433,0.01861
659.07473,0.01867
657.01512,0.01883
654.95551,0.01889
652.89590,0.01903
650.83629,0.01941
648.77668,0.01979
646.71707,0.02010
644.65747,0.02021
642.59786,0.02023
640.53825,0.02020
638.47864,0.02016
636.41903,0.02023
634.35942,0.02039
632.29981,0.02050
630.24021,0.02046
628.18060,0.02037
626.12099,0.02040
624.06138,0.02053
622.00177,0.02048
619.94216,0.02037
617.88256,0.02042
615.82295,0.02052
613.76334,0.02060
611.70373,0.02060
609.64412,0.02036
607.58451,0.01989
605.52490,0.01937
603.46530,0.01880
601.40569,0.01816
599.34608,0.01759
597.28647,0.01708
595.22686,0.01659
593.16725,0.01618
591.10764,0.01584
589.04804,0.01551
586.98843,0.01528
584.92882,0.01516
582.86921,0.01492
580.80960,0.01454
578.74999,0.01424
576.69039,0.01411
574.63078,0.01403
572.57117,0.01396
570.51156,0.01400
568.45195,0.01416
566.39234,0.01436
564.33273,0.01473
562.27313,0.01542
560.21352,0.01633
558.15391,0.01747
556.09430,0.01882
554.03469,0.02005
551.97508,0.02081
549.91547,0.02102
547.85587,0.02096
545.79626,0.02066
543.73665,0.02010
541.67704,0.01955
539.61743,0.01908
537.55782,0.01854
535.49821,0.01794
533.43861,0.01740
531.37900,0.01681
529.31939,0.01613
527.25978,0.01564
525.20017,0.01530
523.14056,0.01482
521.08096,0.01433
519.02135,0.01405
516.96174,0.01383
514.90213,0.01355
512.84252,0.01325
510.78291,0.01295
508.72330,0.01264
506.66370,0.01221
504.60409,0.01164
502.54448,0.01121
500.48487,0.01107
498.42526,0.01107
496.36565,0.01099
494.30604,0.01081
492.24644,0.01061
490.18683,0.01047
488.12722,0.01036
486.06761,0.01027
484.00800,0.01019
481.94839,0.01003
479.88878,0.00963
477.82918,0.00889
475.76957,0.00816
473.70996,0.00775
471.65035,0.00741
469.59074,0.00692
467.53113,0.00647
465.47153,0.00612
463.41192,0.00582
461.35231,0.00567
459.29270,0.00561
457.23309,0.00556
455.17348,0.00557
453.11387,0.00558
451.05427,0.00551
448.99466,0.00524
446.93505,0.00482
444.87544,0.00451
442.81583,0.00430
440.75622,0.00415
438.69661,0.00399
436.63701,0.00379
434.57740,0.00380
432.51779,0.00414
430.45818,0.00475
428.39857,0.00534
426.33896,0.00554
424.27935,0.00546
422.21975,0.00541
420.16014,0.00506
418.10053,0.00427
416.04092,0.00366
413.98131,0.00331
411.92170,0.00289
409.86210,0.00253
407.80249,0.00247
405.74288,0.00245
403.68327,0.00195
401.62366,0.00096
399.56405,0.00000
