2996.73039,0.14870
2994.67079,0.14579
2992.61118,0.14296
2990.55157,0.14012
2988.49196,0.13733
2986.43235,0.13471
2984.37274,0.13222
2982.31313,0.12996
2980.25353,0.12805
2978.19392,0.12633
2976.13431,0.12455
2974.07470,0.12280
2972.01509,0.12113
2969.95548,0.11947
2967.89587,0.11817
2965.83627,0.11720
2963.77666,0.11590
2961.71705,0.11421
2959.65744,0.11250
2957.59783,0.11086
2955.53822,0.10892
2953.47861,0.10637
2951.41901,0.10354
2949.35940,0.10086
2947.29979,0.09840
2945.24018,0.09641
2943.18057,0.09488
2941.12096,0.09344
2939.06136,0.09241
2937.00175,0.09200
2934.94214,0.09187
2932.88253,0.09152
2930.82292,0.09064
2928.76331,0.08970
2926.70370,0.08888
2924.64410,0.08765
2922.58449,0.08589
2920.52488,0.08422
2918.46527,0.08308
2916.40566,0.08162
2914.34605,0.07875
2912.28644,0.07511
2910.22684,0.07192
2908.16723,0.06944
2906.10762,0.06747
2904.04801,0.06571
2901.98840,0.06413
2899.92879,0.06276
2897.86918,0.06139
2895.80958,0.06005
2893.74997,0.05895
2891.69036,0.05786
2889.63075,0.05640
2887.57114,0.05500
2885.51153,0.05401
2883.45193,0.05320
2881.39232,0.05258
2879.33271,0.05242
2877.27310,0.05260
2875.21349,0.05285
2873.15388,0.05279
2871.09427,0.05178
2869.03467,0.04996
2866.97506,0.04809
2864.91545,0.04677
2862.85584,0.04597
2860.79623,0.04526
2858.73662,0.04464
2856.67701,0.04438
2854.61741,0.04444
2852.55780,0.04450
2850.49819,0.04448
2848.43858,0.04369
2846.37897,0.04144
2844.31936,0.03887
2842.25975,0.03704
2840.20015,0.03579
2838.14054,0.03491
2836.08093,0.03419
2834.02132,0.03354
2831.96171,0.03305
2829.90210,0.03248
2827.84250,0.03165
2825.78289,0.03089
2823.72328,0.03038
2821.66367,0.02984
2819.60406,0.02908
2817.54445,0.02839
2815.48484,0.02818
2813.42524,0.02821
2811.36563,0.02795
2809.30602,0.02713
2807.24641,0.02629
2805.18680,0.02615
2803.12719,0.02627
2801.06758,0.02579
2799.00798,0.02510
2796.94837,0.02482
2794.88876,0.02473
2792.82915,0.02427
2790.76954,0.02355
2788.70993,0.02306
2786.65032,0.02288
2784.59072,0.02262
2782.53111,0.02223
2780.47150,0.02197
2778.41189,0.02174
2776.35228,0.02135
2774.29267,0.02087
2772.23307,0.02041
2770.17346,0.02010
2768.11385,0.01999
2766.05424,0.01991
2763.99463,0.01982
2761.93502,0.01977
2759.87541,0.01970
2757.81581,0.01957
2755.75620,0.01940
2753.69659,0.01911
2751.63698,0.01872
2749.57737,0.01830
2747.51776,0.01780
2745.45815,0.01731
2743.39855,0.01715
2741.33894,0.01735
2739.27933,0.01751
2737.21972,0.01746
2735.16011,0.01722
2733.10050,0.01686
2731.04089,0.01658
2728.98129,0.01632
2726.92168,0.01606
2724.86207,0.01596
2722.80246,0.01583
2720.74285,0.01556
2718.68324,0.01534
2716.62364,0.01532
2714.56403,0.01537
2712.50442,0.01529
2710.44481,0.01502
2708.38520,0.01477
2706.32559,0.01465
2704.26598,0.01458
2702.20638,0.01450
2700.14677,0.01430
2698.08716,0.01393
2696.02755,0.01366
2693.96794,0.01368
2691.90833,0.01398
2689.84872,0.01415
2687.78912,0.01390
2685.72951,0.01361
2683.66990,0.01351
2681.61029,0.01361
2679.55068,0.01371
2677.49107,0.01358
2675.43146,0.01335
2673.37186,0.01331
2671.31225,0.01355
2669.25264,0.01373
2667.19303,0.01348
2665.13342,0.01302
2663.07381,0.01271
2661.01421,0.01267
2658.95460,0.01268
2656.89499,0.01258
2654.83538,0.01252
2652.77577,0.01243
2650.71616,0.01228
2648.65655,0.01226
2646.59695,0.01227
2644.53734,0.01216
2642.47773,0.01211
2640.41812,0.01221
2638.35851,0.01219
2636.29890,0.01199
2634.23929,0.01182
2632.17969,0.01172
2630.12008,0.01167
2628.06047,0.01174
2626.00086,0.01180
2623.94125,0.01167
2621.88164,0.01163
2619.82203,0.01198
2617.76243,0.01216
2615.70282,0.01170
2613.64321,0.01127
2611.58360,0.01138
2609.52399,0.01155
2607.46438,0.01146
2605.40478,0.01132
2603.34517,0.01122
2601.28556,0.01122
2599.22595,0.01135
2597.16634,0.01152
2595.10673,0.01155
2593.04712,0.01146
2590.98752,0.01138
2588.92791,0.01122
2586.86830,0.01112
2584.80869,0.01098
2582.74908,0.01095
2580.68947,0.01123
2578.62986,0.01135
2576.57026,0.01133
2574.51065,0.01145
2572.45104,0.01152
2570.39143,0.01148
2568.33182,0.01148
2566.27221,0.01159
2564.21260,0.01158
2562.15300,0.01157
2560.09339,0.01201
2558.03378,0.01250
2555.97417,0.01251
2553.91456,0.01212
2551.85495,0.01158
2549.79535,0.01124
2547.73574,0.01132
2545.67613,0.01176
2543.61652,0.01219
2541.55691,0.01215
2539.49730,0.01171
2537.43769,0.01146
2535.37809,0.01161
2533.31848,0.01185
2531.25887,0.01211
2529.19926,0.01250
2527.13965,0.01319
2525.08004,0.01365
2523.02043,0.01326
2520.96083,0.01274
2518.90122,0.01288
2516.84161,0.01304
2514.78200,0.01274
2512.72239,0.01259
2510.66278,0.01266
2508.60317,0.01257
2506.54357,0.01241
2504.48396,0.01243
2502.42435,0.01267
2500.36474,0.01294
2498.30513,0.01319
2496.24552,0.01360
2494.18592,0.01381
2492.12631,0.01373
2490.06670,0.01390
2488.00709,0.01419
2485.94748,0.01435
2483.88787,0.01455
2481.82826,0.01480
2479.76866,0.01484
2477.70905,0.01440
2475.64944,0.01403
2473.58983,0.01418
2471.53022,0.01418
2469.47061,0.01392
2467.41100,0.01408
2465.35140,0.01463
2463.29179,0.01518
2461.23218,0.01550
2459.17257,0.01541
2457.11296,0.01513
2455.05335,0.01507
2452.99374,0.01521
2450.93414,0.01550
2448.87453,0.01575
2446.81492,0.01579
2444.75531,0.01590
2442.69570,0.01615
2440.63609,0.01639
2438.57649,0.01668
2436.51688,0.01691
2434.45727,0.01675
2432.39766,0.01649
2430.33805,0.01645
2428.27844,0.01653
2426.21883,0.01683
2424.15923,0.01713
2422.09962,0.01717
2420.04001,0.01730
2417.98040,0.01757
2415.92079,0.01759
2413.86118,0.01767
2411.80157,0.01802
2409.74197,0.01828
2407.68236,0.01833
2405.62275,0.01821
2403.56314,0.01788
2401.50353,0.01777
2399.44392,0.01816
2397.38431,0.01866
2395.32471,0.01896
2393.26510,0.01913
2391.20549,0.01932
2389.14588,0.01938
2387.08627,0.01917
2385.02666,0.01910
2382.96706,0.01948
2380.90745,0.01980
2378.84784,0.01976
2376.78823,0.01982
2374.72862,0.02023
2372.66901,0.02081
2370.60940,0.02095
2368.54980,0.02056
2366.49019,0.02064
2364.43058,0.02116
2362.37097,0.02117
2360.31136,0.02129
2358.25175,0.02182
2356.19214,0.02195
2354.13254,0.02175
2352.07293,0.02175
2350.01332,0.02196
2347.95371,0.02220
2345.89410,0.02261
2343.83449,0.02325
2341.77488,0.02366
2339.71528,0.02368
2337.65567,0.02372
2335.59606,0.02386
2333.53645,0.02405
2331.47684,0.02401
2329.41723,0.02376
2327.35763,0.02383
2325.29802,0.02423
2323.23841,0.02449
2321.17880,0.02434
2319.11919,0.02406
2317.05958,0.02401
2314.99997,0.02426
2312.94037,0.02464
2310.88076,0.02500
2308.82115,0.02528
2306.76154,0.02528
2304.70193,0.02501
2302.64232,0.02476
2300.58271,0.02486
2298.52311,0.02525
2296.46350,0.02542
2294.40389,0.02541
2292.34428,0.02575
2290.28467,0.02624
2288.22506,0.02644
2286.16545,0.02660
2284.10585,0.02687
2282.04624,0.02686
2279.98663,0.02650
2277.92702,0.02625
2275.86741,0.02619
2273.80780,0.02621
2271.74820,0.02619
2269.68859,0.02604
2267.62898,0.02611
2265.56937,0.02663
2263.50976,0.02736
2261.45015,0.02758
2259.39054,0.02714
2257.33094,0.02699
2255.27133,0.02739
2253.21172,0.02764
2251.15211,0.02747
2249.09250,0.02761
2247.03289,0.02843
2244.97328,0.02893
2242.91368,0.02803
2240.85407,0.02650
2238.79446,0.02592
2236.73485,0.02656
2234.67524,0.02743
2232.61563,0.02763
2230.55602,0.02765
2228.49642,0.02813
2226.43681,0.02908
2224.37720,0.03014
2222.31759,0.03076
2220.25798,0.03071
2218.19837,0.03012
2216.13877,0.02974
2214.07916,0.03005
2212.01955,0.03043
2209.95994,0.03025
2207.90033,0.02977
2205.84072,0.02966
2203.78111,0.02988
2201.72151,0.02971
2199.66190,0.02895
2197.60229,0.02845
2195.54268,0.02895
2193.48307,0.02988
2191.42346,0.02997
2189.36385,0.02917
2187.30425,0.02876
2185.24464,0.02953
2183.18503,0.03033
2181.12542,0.02973
2179.06581,0.02888
2177.00620,0.02965
2174.94659,0.03120
2172.88699,0.03168
2170.82738,0.03093
2168.76777,0.02906
2166.70816,0.02695
2164.64855,0.02720
2162.58894,0.03014
2160.52934,0.03197
2158.46973,0.03108
2156.41012,0.03058
2154.35051,0.03152
2152.29090,0.03238
2150.23129,0.03247
2148.17168,0.03225
2146.11208,0.03246
2144.05247,0.03282
2141.99286,0.03282
2139.93325,0.03288
2137.87364,0.03357
2135.81403,0.03444
2133.75442,0.03526
2131.69482,0.03598
2129.63521,0.03595
2127.57560,0.03583
2125.51599,0.03651
2123.45638,0.03691
2121.39677,0.03673
2119.33716,0.03680
2117.27756,0.03694
2115.21795,0.03704
2113.15834,0.03730
2111.09873,0.03733
2109.03912,0.03697
2106.97951,0.03638
2104.91991,0.03537
2102.86030,0.03444
2100.80069,0.03464
2098.74108,0.03511
2096.68147,0.03481
2094.62186,0.03462
2092.56225,0.03479
2090.50265,0.03455
2088.44304,0.03432
2086.38343,0.03451
2084.32382,0.03466
2082.26421,0.03450
2080.20460,0.03406
2078.14499,0.03345
2076.08539,0.03304
2074.02578,0.03315
2071.96617,0.03319
2069.90656,0.03256
2067.84695,0.03200
2065.78734,0.03178
2063.72773,0.03112
2061.66813,0.03017
2059.60852,0.02943
2057.54891,0.02909
2055.48930,0.02961
2053.42969,0.03032
2051.37008,0.02989
2049.31048,0.02863
2047.25087,0.02723
2045.19126,0.02608
2043.13165,0.02575
2041.07204,0.02597
2039.01243,0.02665
2036.95282,0.02734
2034.89322,0.02665
2032.83361,0.02562
2030.77400,0.02607
2028.71439,0.02669
2026.65478,0.02602
2024.59517,0.02477
2022.53556,0.02444
2020.47596,0.02429
2018.41635,0.02319
2016.35674,0.02274
2014.29713,0.02349
2012.23752,0.02395
2010.17791,0.02357
2008.11830,0.02283
2006.05870,0.02238
2003.99909,0.02262
2001.93948,0.02346
1999.87987,0.02423
1997.82026,0.02454
1995.76065,0.02475
1993.70105,0.02462
1991.64144,0.02337
1989.58183,0.02145
1987.52222,0.02003
1985.46261,0.01987
1983.40300,0.02124
1981.34339,0.02256
1979.28379,0.02232
1977.22418,0.02144
1975.16457,0.02056
1973.10496,0.02012
1971.04535,0.02036
1968.98574,0.02050
1966.92613,0.02044
1964.86653,0.02017
1962.80692,0.01960
1960.74731,0.01948
1958.68770,0.01975
1956.62809,0.01980
1954.56848,0.02007
1952.50887,0.02058
1950.44927,0.02062
1948.38966,0.02024
1946.33005,0.02018
1944.27044,0.02059
1942.21083,0.02089
1940.15122,0.02077
1938.09162,0.02064
1936.03201,0.02063
1933.97240,0.02066
1931.91279,0.02084
1929.85318,0.02065
1927.79357,0.02013
1925.73396,0.01995
1923.67436,0.02000
1921.61475,0.02013
1919.55514,0.02030
1917.49553,0.02026
1915.43592,0.02018
1913.37631,0.02032
1911.31670,0.02054
1909.25710,0.02058
1907.19749,0.02033
1905.13788,0.02013
1903.07827,0.02024
1901.01866,0.02041
1898.95905,0.02040
1896.89944,0.02037
1894.83984,0.02044
1892.78023,0.02038
1890.72062,0.01998
1888.66101,0.01954
1886.60140,0.01960
1884.54179,0.01987
1882.48219,0.01993
1880.42258,0.01999
1878.36297,0.01995
1876.30336,0.01979
1874.24375,0.01993
1872.18414,0.02039
1870.12453,0.02049
1868.06493,0.02015
1866.00532,0.02007
1863.94571,0.02034
1861.88610,0.02070
1859.82649,0.02103
1857.76688,0.02117
1855.70727,0.02107
1853.64767,0.02094
1851.58806,0.02093
1849.52845,0.02110
1847.46884,0.02133
1845.40923,0.02139
1843.34962,0.02149
1841.29002,0.02165
1839.23041,0.02161
1837.17080,0.02165
1835.11119,0.02185
1833.05158,0.02195
1830.99197,0.02201
1828.93236,0.02218
1826.87276,0.02244
1824.81315,0.02273
1822.75354,0.02279
1820.69393,0.02252
1818.63432,0.02239
1816.57471,0.02260
1814.51510,0.02305
1812.45550,0.02357
1810.39589,0.02392
1808.33628,0.02413
1806.27667,0.02435
1804.21706,0.02470
1802.15745,0.02506
1800.09784,0.02531
1798.03824,0.02544
1795.97863,0.02571
1793.91902,0.02618
1791.85941,0.02657
1789.79980,0.02680
1787.74019,0.02716
1785.68059,0.02763
1783.62098,0.02795
1781.56137,0.02821
1779.50176,0.02865
1777.44215,0.02923
1775.38254,0.02978
1773.32293,0.03032
1771.26333,0.03087
1769.20372,0.03146
1767.14411,0.03211
1765.08450,0.03274
1763.02489,0.03335
1760.96528,0.03404
1758.90567,0.03480
1756.84607,0.03556
1754.78646,0.03633
1752.72685,0.03731
1750.66724,0.03857
1748.60763,0.03973
1746.54802,0.04076
1744.48841,0.04190
1742.42881,0.04306
1740.36920,0.04415
1738.30959,0.04526
1736.24998,0.04653
1734.19037,0.04849
1732.13076,0.05056
1730.07116,0.05216
1728.01155,0.05403
1725.95194,0.05610
1723.89233,0.05825
1721.83272,0.06031
1719.77311,0.06239
1717.71350,0.06520
1715.65390,0.06850
1713.59429,0.07135
1711.53468,0.07410
1709.47507,0.07704
1707.41546,0.08036
1705.35585,0.08426
1703.29624,0.08789
1701.23664,0.09185
1699.17703,0.09691
1697.11742,0.10172
1695.05781,0.10678
1692.99820,0.11152
1690.93859,0.11603
1688.87898,0.12110
1686.81938,0.12599
1684.75977,0.13217
1682.70016,0.13956
1680.64055,0.14527
1678.58094,0.15017
1676.52133,0.15570
1674.46173,0.16233
1672.40212,0.16859
1670.34251,0.17513
1668.28290,0.18261
1666.22329,0.18883
1664.16368,0.19469
1662.10407,0.20172
1660.04447,0.20849
1657.98486,0.21401
1655.92525,0.21856
1653.86564,0.22446
1651.80603,0.23197
1649.74642,0.23603
1647.68681,0.23912
1645.62721,0.24330
1643.56760,0.24624
1641.50799,0.24778
1639.44838,0.24884
1637.38877,0.24946
1635.32916,0.24940
1633.26955,0.24810
1631.20995,0.24573
1629.15034,0.24242
1627.09073,0.23821
1625.03112,0.23316
1622.97151,0.22718
1620.91190,0.22099
1618.85230,0.21477
1616.79269,0.20716
1614.73308,0.19909
1612.67347,0.19194
1610.61386,0.18485
1608.55425,0.17767
1606.49464,0.17084
1604.43504,0.16447
1602.37543,0.15833
1600.31582,0.15242
1598.25621,0.14687
1596.19660,0.14166
1594.13699,0.13678
1592.07738,0.13240
1590.01778,0.12836
1587.95817,0.12460
1585.89856,0.12122
1583.83895,0.11824
1581.77934,0.11573
1579.71973,0.11357
1577.66012,0.11124
1575.60052,0.10841
1573.54091,0.10577
1571.48130,0.10329
1569.42169,0.10075
1567.36208,0.09857
1565.30247,0.09660
1563.24287,0.09476
1561.18326,0.09327
1559.12365,0.09182
1557.06404,0.09059
1555.00443,0.08970
1552.94482,0.08884
1550.88521,0.08803
1548.82561,0.08725
1546.76600,0.08655
1544.70639,0.08587
1542.64678,0.08517
1540.58717,0.08437
1538.52756,0.08323
1536.46795,0.08192
1534.40835,0.08043
1532.34874,0.07878
1530.28913,0.07746
1528.22952,0.07639
1526.16991,0.07524
1524.11030,0.07404
1522.05069,0.07303
1519.99109,0.07255
1517.93148,0.07227
1515.87187,0.07170
1513.81226,0.07094
1511.75265,0.07019
1509.69304,0.06947
1507.63344,0.06869
1505.57383,0.06806
1503.51422,0.06771
1501.45461,0.06734
1499.39500,0.06691
1497.33539,0.06657
1495.27578,0.06626
1493.21618,0.06582
1491.15657,0.06539
1489.09696,0.06547
1487.03735,0.06591
1484.97774,0.06641
1482.91813,0.06720
1480.85852,0.06844
1478.79892,0.06979
1476.73931,0.07067
1474.67970,0.07079
1472.62009,0.07012
1470.56048,0.06901
1468.50087,0.06801
1466.44126,0.06723
1464.38166,0.06657
1462.32205,0.06592
1460.26244,0.06527
1458.20283,0.06457
1456.14322,0.06390
1454.08361,0.06339
1452.02401,0.06288
1449.96440,0.06241
1447.90479,0.06208
1445.84518,0.06180
1443.78557,0.06157
1441.72596,0.06146
1439.66635,0.06145
1437.60675,0.06147
1435.54714,0.06153
1433.48753,0.06143
1431.42792,0.06113
1429.36831,0.06084
1427.30870,0.06068
1425.24909,0.06067
1423.18949,0.06066
1421.12988,0.06055
1419.07027,0.06031
1417.01066,0.05990
1414.95105,0.05948
1412.89144,0.05914
1410.83183,0.05878
1408.77223,0.05856
1406.71262,0.05851
1404.65301,0.05837
1402.59340,0.05811
1400.53379,0.05787
1398.47418,0.05767
1396.41458,0.05756
1394.35497,0.05755
1392.29536,0.05748
1390.23575,0.05728
1388.17614,0.05703
1386.11653,0.05681
1384.05692,0.05669
1381.99732,0.05663
1379.93771,0.05649
1377.87810,0.05626
1375.81849,0.05611
1373.75888,0.05599
1371.69927,0.05584
1369.63966,0.05570
1367.58006,0.05556
1365.52045,0.05545
1363.46084,0.05544
1361.40123,0.05542
1359.34162,0.05527
1357.28201,0.05511
1355.22240,0.05502
1353.16280,0.05496
1351.10319,0.05490
1349.04358,0.05485
1346.98397,0.05482
1344.92436,0.05476
1342.86475,0.05469
1340.80515,0.05470
1338.74554,0.05471
1336.68593,0.05459
1334.62632,0.05440
1332.56671,0.05422
1330.50710,0.05407
1328.44749,0.05398
1326.38789,0.05395
1324.32828,0.05392
1322.26867,0.05392
1320.20906,0.05393
1318.14945,0.05387
1316.08984,0.05379
1314.03023,0.05374
1311.97063,0.05362
1309.91102,0.05348
1307.85141,0.05338
1305.79180,0.05327
1303.73219,0.05315
1301.67258,0.05308
1299.61297,0.05307
1297.55337,0.05305
1295.49376,0.05296
1293.43415,0.05277
1291.37454,0.05262
1289.31493,0.05254
1287.25532,0.05245
1285.19572,0.05233
1283.13611,0.05233
1281.07650,0.05234
1279.01689,0.05227
1276.95728,0.05218
1274.89767,0.05205
1272.83806,0.05186
1270.77846,0.05166
1268.71885,0.05140
1266.65924,0.05111
1264.59963,0.05095
1262.54002,0.05087
1260.48041,0.05082
1258.42080,0.05080
1256.36120,0.05080
1254.30159,0.05076
1252.24198,0.05068
1250.18237,0.05065
1248.12276,0.05068
1246.06315,0.05064
1244.00354,0.05050
1241.94394,0.05034
1239.88433,0.05020
1237.82472,0.05008
1235.76511,0.05001
1233.70550,0.04992
1231.64589,0.04978
1229.58629,0.04966
1227.52668,0.04954
1225.46707,0.04938
1223.40746,0.04924
1221.34785,0.04914
1219.28824,0.04910
1217.22863,0.04912
1215.16903,0.04908
1213.10942,0.04897
1211.04981,0.04884
1208.99020,0.04871
1206.93059,0.04862
1204.87098,0.04856
1202.81137,0.04845
1200.75177,0.04834
1198.69216,0.04823
1196.63255,0.04806
1194.57294,0.04790
1192.51333,0.04781
1190.45372,0.04773
1188.39411,0.04768
1186.33451,0.04763
1184.27490,0.04753
1182.21529,0.04748
1180.15568,0.04747
1178.09607,0.04745
1176.03646,0.04746
1173.97686,0.04747
1171.91725,0.04739
1169.85764,0.04724
1167.79803,0.04712
1165.73842,0.04707
1163.67881,0.04695
1161.61920,0.04676
1159.55960,0.04667
1157.49999,0.04667
1155.44038,0.04665
1153.38077,0.04654
1151.32116,0.04633
1149.26155,0.04619
1147.20194,0.04619
1145.14234,0.04616
1143.08273,0.04607
1141.02312,0.04601
1138.96351,0.04595
1136.90390,0.04588
1134.84429,0.04580
1132.78468,0.04573
1130.72508,0.04573
1128.66547,0.04582
1126.60586,0.04586
1124.54625,0.04586
1122.48664,0.04584
1120.42703,0.04571
1118.36743,0.04560
1116.30782,0.04559
1114.24821,0.04554
1112.18860,0.04541
1110.12899,0.04534
1108.06938,0.04537
1106.00977,0.04547
1103.95017,0.04549
1101.89056,0.04539
1099.83095,0.04524
1097.77134,0.04513
1095.71173,0.04505
1093.65212,0.04498
1091.59251,0.04497
1089.53291,0.04497
1087.47330,0.04497
1085.41369,0.04498
1083.35408,0.04497
1081.29447,0.04495
1079.23486,0.04495
1077.17525,0.04494
1075.11565,0.04500
1073.05604,0.04509
1070.99643,0.04513
1068.93682,0.04509
1066.87721,0.04502
1064.81760,0.04502
1062.75800,0.04504
1060.69839,0.04503
1058.63878,0.04504
1056.57917,0.04510
1054.51956,0.04516
1052.45995,0.04522
1050.40034,0.04533
1048.34074,0.04543
1046.28113,0.04545
1044.22152,0.04543
1042.16191,0.04549
1040.10230,0.04574
1038.04269,0.04601
1035.98308,0.04605
1033.92348,0.04592
1031.86387,0.04583
1029.80426,0.04584
1027.74465,0.04590
1025.68504,0.04602
1023.62543,0.04620
1021.56582,0.04645
1019.50622,0.04669
1017.44661,0.04684
1015.38700,0.04696
1013.32739,0.04714
1011.26778,0.04736
1009.20817,0.04754
1007.14857,0.04763
1005.08896,0.04767
1003.02935,0.04769
1000.96974,0.04786
998.91013,0.04822
996.85052,0.04855
994.79091,0.04879
992.73131,0.04903
990.67170,0.04923
988.61209,0.04938
986.55248,0.04959
984.49287,0.04987
982.43326,0.05016
980.37365,0.05044
978.31405,0.05075
976.25444,0.05109
974.19483,0.05147
972.13522,0.05195
970.07561,0.05246
968.01600,0.05289
965.95639,0.05330
963.89679,0.05373
961.83718,0.05408
959.77757,0.05446
957.71796,0.05501
955.65835,0.05562
953.59874,0.05619
951.53914,0.05673
949.47953,0.05722
947.41992,0.05780
945.36031,0.05848
943.30070,0.05911
941.24109,0.05971
939.18148,0.06041
937.12188,0.06118
935.06227,0.06198
933.00266,0.06272
930.94305,0.06338
928.88344,0.06408
926.82383,0.06494
924.76422,0.06588
922.70462,0.06679
920.64501,0.06771
918.58540,0.06869
916.52579,0.06968
914.46618,0.07062
912.40657,0.07153
910.34696,0.07241
908.28736,0.07335
906.22775,0.07446
904.16814,0.07570
902.10853,0.07698
900.04892,0.07817
897.98931,0.07928
895.92971,0.08039
893.87010,0.08158
891.81049,0.08276
889.75088,0.08389
887.69127,0.08510
885.63166,0.08640
883.57205,0.08768
881.51245,0.08899
879.45284,0.09033
877.39323,0.09169
875.33362,0.09314
873.27401,0.09461
871.21440,0.09604
869.15479,0.09749
867.09519,0.09893
865.03558,0.10036
862.97597,0.10173
860.91636,0.10308
858.85675,0.10462
856.79714,0.10619
854.73753,0.10764
852.67793,0.10908
850.61832,0.11054
848.55871,0.11206
846.49910,0.11372
844.43949,0.11538
842.37988,0.11694
840.32028,0.11853
838.26067,0.12006
836.20106,0.12146
834.14145,0.12293
832.08184,0.12452
830.02223,0.12609
827.96262,0.12766
825.90302,0.12917
823.84341,0.13064
821.78380,0.13224
819.72419,0.13385
817.66458,0.13540
815.60497,0.13702
813.54536,0.13863
811.48576,0.14019
809.42615,0.14178
807.36654,0.14344
805.30693,0.14501
803.24732,0.14647
801.18771,0.14796
799.12810,0.14938
