3997.70013,0.06706
3995.64052,0.06621
3993.58092,0.06570
3991.52131,0.06566
3989.46170,0.06629
3987.40209,0.06751
3985.34248,0.06810
3983.28287,0.06704
3981.22327,0.06576
3979.16366,0.06589
3977.10405,0.06648
3975.04444,0.06623
3972.98483,0.06556
3970.92522,0.06550
3968.86561,0.06586
3966.80601,0.06570
3964.74640,0.06502
3962.68679,0.06442
3960.62718,0.06420
3958.56757,0.06420
3956.50796,0.06402
3954.44835,0.06391
3952.38875,0.06422
3950.32914,0.06465
3948.26953,0.06461
3946.20992,0.06415
3944.15031,0.06403
3942.09070,0.06419
3940.03109,0.06411
3937.97149,0.06388
3935.91188,0.06419
3933.85227,0.06506
3931.79266,0.06551
3929.73305,0.06477
3927.67344,0.06361
3925.61384,0.06320
3923.55423,0.06354
3921.49462,0.06391
3919.43501,0.06388
3917.37540,0.06340
3915.31579,0.06276
3913.25618,0.06242
3911.19658,0.06223
3909.13697,0.06200
3907.07736,0.06198
3905.01775,0.06173
3902.95814,0.06112
3900.89853,0.06104
3898.83892,0.06129
3896.77932,0.06144
3894.71971,0.06173
3892.66010,0.06191
3890.60049,0.06189
3888.54088,0.06195
3886.48127,0.06154
3884.42166,0.06090
3882.36206,0.06120
3880.30245,0.06209
3878.24284,0.06234
3876.18323,0.06194
3874.12362,0.06150
3872.06401,0.06098
3870.00441,0.06075
3867.94480,0.06110
3865.88519,0.06097
3863.82558,0.06038
3861.76597,0.06042
3859.70636,0.06080
3857.64675,0.06052
3855.58715,0.05979
3853.52754,0.05966
3851.46793,0.05971
3849.40832,0.05924
3847.34871,0.05914
3845.28910,0.05961
3843.22949,0.05980
3841.16989,0.05947
3839.11028,0.05908
3837.05067,0.05886
3834.99106,0.05864
3832.93145,0.05830
3830.87184,0.05844
3828.81223,0.05856
3826.75263,0.05799
3824.69302,0.05772
3822.63341,0.05820
3820.57380,0.05890
3818.51419,0.05909
3816.45458,0.05887
3814.39498,0.05876
3812.33537,0.05853
3810.27576,0.05772
3808.21615,0.05672
3806.15654,0.05661
3804.09693,0.05694
3802.03732,0.05664
3799.97772,0.05630
3797.91811,0.05633
3795.85850,0.05678
3793.79889,0.05737
3791.73928,0.05723
3789.67967,0.05684
3787.62006,0.05694
3785.56046,0.05680
3783.50085,0.05631
3781.44124,0.05611
3779.38163,0.05600
3777.32202,0.05586
3775.26241,0.05602
3773.20280,0.05599
3771.14320,0.05545
3769.08359,0.05525
3767.02398,0.05567
3764.96437,0.05592
3762.90476,0.05553
3760.84515,0.05489
3758.78555,0.05460
3756.72594,0.05432
3754.66633,0.05392
3752.60672,0.05409
3750.54711,0.05460
3748.48750,0.05485
3746.42789,0.05518
3744.36829,0.05525
3742.30868,0.05458
3740.24907,0.05389
3738.18946,0.05338
3736.12985,0.05292
3734.07024,0.05273
3732.01063,0.05264
3729.95103,0.05217
3727.89142,0.05181
3725.83181,0.05228
3723.77220,0.05338
3721.71259,0.05396
3719.65298,0.05333
3717.59337,0.05228
3715.53377,0.05159
3713.47416,0.05104
3711.41455,0.05080
3709.35494,0.05130
3707.29533,0.05201
3705.23572,0.05216
3703.17612,0.05181
3701.11651,0.05187
3699.05690,0.05243
3696.99729,0.05245
3694.93768,0.05203
3692.87807,0.05175
3690.81846,0.05133
3688.75886,0.05131
3686.69925,0.05220
3684.63964,0.05270
3682.58003,0.05231
3680.52042,0.05172
3678.46081,0.05192
3676.40120,0.05306
3674.34160,0.05395
3672.28199,0.05407
3670.22238,0.05444
3668.16277,0.05502
3666.10316,0.05553
3664.04355,0.05619
3661.98394,0.05674
3659.92434,0.05748
3657.86473,0.05847
3655.80512,0.05909
3653.74551,0.05910
3651.68590,0.05945
3649.62629,0.06087
3647.56669,0.06188
3645.50708,0.06217
3643.44747,0.06304
3641.38786,0.06454
3639.32825,0.06581
3637.26864,0.06630
3635.20903,0.06676
3633.14943,0.06746
3631.08982,0.06820
3629.03021,0.06947
3626.97060,0.07073
3624.91099,0.07145
3622.85138,0.07206
3620.79177,0.07265
3618.73217,0.07355
3616.67256,0.07491
3614.61295,0.07608
3612.55334,0.07659
3610.49373,0.07657
3608.43412,0.07723
3606.37451,0.07925
3604.31491,0.08140
3602.25530,0.08313
3600.19569,0.08438
3598.13608,0.08503
3596.07647,0.08601
3594.01686,0.08781
3591.95726,0.08939
3589.89765,0.09050
3587.83804,0.09207
3585.77843,0.09398
3583.71882,0.09556
3581.65921,0.09727
3579.59960,0.09930
3577.54000,0.10119
3575.48039,0.10279
3573.42078,0.10409
3571.36117,0.10531
3569.30156,0.10708
3567.24195,0.10942
3565.18234,0.11148
3563.12274,0.11317
3561.06313,0.11482
3559.00352,0.11663
3556.94391,0.11881
3554.88430,0.12106
3552.82469,0.12327
3550.76508,0.12521
3548.70548,0.12671
3546.64587,0.12810
3544.58626,0.12954
3542.52665,0.13123
3540.46704,0.13350
3538.40743,0.13596
3536.34783,0.13812
3534.28822,0.13979
3532.22861,0.14104
3530.16900,0.14247
3528.10939,0.14469
3526.04978,0.14746
3523.99017,0.14971
3521.93057,0.15133
3519.87096,0.15330
3517.81135,0.15584
3515.75174,0.15796
3513.69213,0.15924
3511.63252,0.16056
3509.57291,0.16221
3507.51331,0.16358
3505.45370,0.16462
3503.39409,0.16638
3501.33448,0.16916
3499.27487,0.17190
3497.21526,0.17396
3495.15565,0.17573
3493.09605,0.17766
3491.03644,0.18006
3488.97683,0.18273
3486.91722,0.18463
3484.85761,0.18570
3482.79800,0.18701
3480.73840,0.18917
3478.67879,0.19199
3476.61918,0.19483
3474.55957,0.19723
3472.49996,0.19906
3470.44035,0.20081
3468.38074,0.20303
3466.32114,0.20546
3464.26153,0.20805
3462.20192,0.21084
3460.14231,0.21304
3458.08270,0.21459
3456.02309,0.21618
3453.96348,0.21801
3451.90388,0.22046
3449.84427,0.22313
3447.78466,0.22516
3445.72505,0.22696
3443.66544,0.22874
3441.60583,0.23074
3439.54622,0.23322
3437.48662,0.23548
3435.42701,0.23731
3433.36740,0.23899
3431.30779,0.24084
3429.24818,0.24310
3427.18857,0.24542
3425.12897,0.24748
3423.06936,0.24946
3421.00975,0.25132
3418.95014,0.25328
3416.89053,0.25566
3414.83092,0.25802
3412.77131,0.25988
3410.71171,0.26134
3408.65210,0.26324
3406.59249,0.26573
3404.53288,0.26820
3402.47327,0.27043
3400.41366,0.27234
3398.35405,0.27399
3396.29445,0.27559
3394.23484,0.27734
3392.17523,0.27896
3390.11562,0.28023
3388.05601,0.28185
3385.99640,0.28357
3383.93679,0.28462
3381.87719,0.28555
3379.81758,0.28719
3377.75797,0.28929
3375.69836,0.29117
3373.63875,0.29257
3371.57914,0.29339
3369.51954,0.29410
3367.45993,0.29543
3365.40032,0.29692
3363.34071,0.29804
3361.28110,0.29924
3359.22149,0.30072
3357.16188,0.30209
3355.10228,0.30320
3353.04267,0.30414
3350.98306,0.30513
3348.92345,0.30619
3346.86384,0.30702
3344.80423,0.30770
3342.74462,0.30876
3340.68502,0.31008
3338.62541,0.31127
3336.56580,0.31231
3334.50619,0.31284
3332.44658,0.31296
3330.38697,0.31345
3328.32736,0.31422
3326.26776,0.31478
3324.20815,0.31528
3322.14854,0.31608
3320.08893,0.31714
3318.02932,0.31790
3315.96971,0.31773
3313.91011,0.31690
3311.85050,0.31650
3309.79089,0.31719
3307.73128,0.31823
3305.67167,0.31839
3303.61206,0.31798
3301.55245,0.31790
3299.49285,0.31826
3297.43324,0.31857
3295.37363,0.31867
3293.31402,0.31892
3291.25441,0.31885
3289.19480,0.31847
3287.13519,0.31844
3285.07559,0.31841
3283.01598,0.31786
3280.95637,0.31711
3278.89676,0.31674
3276.83715,0.31676
3274.77754,0.31693
3272.71793,0.31706
3270.65833,0.31686
3268.59872,0.31643
3266.53911,0.31613
3264.47950,0.31573
3262.41989,0.31494
3260.36028,0.31409
3258.30068,0.31344
3256.24107,0.31296
3254.18146,0.31242
3252.12185,0.31159
3250.06224,0.31113
3248.00263,0.31120
3245.94302,0.31096
3243.88342,0.31018
3241.82381,0.30920
3239.76420,0.30811
3237.70459,0.30697
3235.64498,0.30580
3233.58537,0.30464
3231.52576,0.30372
3229.46616,0.30281
3227.40655,0.30155
3225.34694,0.30029
3223.28733,0.29924
3221.22772,0.29804
3219.16811,0.29653
3217.10850,0.29482
3215.04890,0.29322
3212.98929,0.29205
3210.92968,0.29107
3208.87007,0.29002
3206.81046,0.28877
3204.75085,0.28722
3202.69125,0.28548
3200.63164,0.28374
3198.57203,0.28223
3196.51242,0.28083
3194.45281,0.27883
3192.39320,0.27649
3190.33359,0.27483
3188.27399,0.27355
3186.21438,0.27199
3184.15477,0.27035
3182.09516,0.26867
3180.03555,0.26675
3177.97594,0.26485
3175.91633,0.26317
3173.85673,0.26140
3171.79712,0.25922
3169.73751,0.25658
3167.67790,0.25381
3165.61829,0.25160
3163.55868,0.25021
3161.49907,0.24895
3159.43947,0.24719
3157.37986,0.24493
3155.32025,0.24240
3153.26064,0.24027
3151.20103,0.23844
3149.14142,0.23625
3147.08182,0.23400
3145.02221,0.23199
3142.96260,0.23000
3140.90299,0.22802
3138.84338,0.22604
3136.78377,0.22388
3134.72416,0.22138
3132.66456,0.21884
3130.60495,0.21685
3128.54534,0.21554
3126.48573,0.21408
3124.42612,0.21199
3122.36651,0.20963
3120.30690,0.20732
3118.24730,0.20532
3116.18769,0.20341
3114.12808,0.20123
3112.06847,0.19912
3110.00886,0.19718
3107.94925,0.19511
3105.88965,0.19326
3103.83004,0.19194
3101.77043,0.19037
3099.71082,0.18808
3097.65121,0.18571
3095.59160,0.18379
3093.53199,0.18213
3091.47239,0.18044
3089.41278,0.17859
3087.35317,0.17681
3085.29356,0.17504
3083.23395,0.17296
3081.17434,0.17097
3079.11473,0.16921
3077.05513,0.16739
3074.99552,0.16603
3072.93591,0.16515
3070.87630,0.16377
3068.81669,0.16193
3066.75708,0.16014
3064.69747,0.15822
3062.63787,0.15616
3060.57826,0.15450
3058.51865,0.15330
3056.45904,0.15188
3054.39943,0.15005
3052.33982,0.14844
3050.28022,0.14742
3048.22061,0.14650
3046.16100,0.14513
3044.10139,0.14347
3042.04178,0.14196
3039.98217,0.14077
3037.92256,0.13947
3035.86296,0.13806
3033.80335,0.13701
3031.74374,0.13598
3029.68413,0.13436
3027.62452,0.13262
3025.56491,0.13143
3023.50530,0.13061
3021.44570,0.12976
3019.38609,0.12875
3017.32648,0.12772
3015.26687,0.12658
3013.20726,0.12526
3011.14765,0.12423
3009.08804,0.12365
3007.02844,0.12301
3004.96883,0.12206
3002.90922,0.12098
3000.84961,0.12021
2998.79000,0.11999
2996.73039,0.11995
2994.67079,0.11978
2992.61118,0.11966
2990.55157,0.11971
2988.49196,0.11971
2986.43235,0.11962
2984.37274,0.11960
2982.31313,0.11978
2980.25353,0.12023
2978.19392,0.12081
2976.13431,0.12129
2974.07470,0.12183
2972.01509,0.12249
2969.95548,0.12309
2967.89587,0.12401
2965.83627,0.12544
2963.77666,0.12674
2961.71705,0.12747
2959.65744,0.12802
2957.59783,0.12893
2955.53822,0.13010
2953.47861,0.13157
2951.41901,0.13396
2949.35940,0.13714
2947.29979,0.14016
2945.24018,0.14292
2943.18057,0.14576
2941.12096,0.14860
2939.06136,0.15111
2937.00175,0.15282
2934.94214,0.15399
2932.88253,0.15523
2930.82292,0.15674
2928.76331,0.15855
2926.70370,0.16012
2924.64410,0.16075
2922.58449,0.16052
2920.52488,0.15980
2918.46527,0.15892
2916.40566,0.15817
2914.34605,0.15741
2912.28644,0.15630
2910.22684,0.15498
2908.16723,0.15358
2906.10762,0.15195
2904.04801,0.15015
2901.98840,0.14855
2899.92879,0.14733
2897.86918,0.14611
2895.80958,0.14474
2893.74997,0.14349
2891.69036,0.14204
2889.63075,0.14052
2887.57114,0.13927
2885.51153,0.13796
2883.45193,0.13663
2881.39232,0.13577
2879.33271,0.13506
2877.27310,0.13370
2875.21349,0.13192
2873.15388,0.13055
2871.09427,0.12955
2869.03467,0.12834
2866.97506,0.12693
2864.91545,0.12563
2862.85584,0.12451
2860.79623,0.12348
2858.73662,0.12252
2856.67701,0.12153
2854.61741,0.12047
2852.55780,0.11934
2850.49819,0.11829
2848.43858,0.11738
2846.37897,0.11651
2844.31936,0.11565
2842.25975,0.11466
2840.20015,0.11359
2838.14054,0.11266
2836.08093,0.11167
2834.02132,0.11069
2831.96171,0.11002
2829.90210,0.10948
2827.84250,0.10878
2825.78289,0.10787
2823.72328,0.10699
2821.66367,0.10629
2819.60406,0.10558
2817.54445,0.10487
2815.48484,0.10419
2813.42524,0.10357
2811.36563,0.10306
2809.30602,0.10255
2807.24641,0.10205
2805.18680,0.10155
2803.12719,0.10098
2801.06758,0.10051
2799.00798,0.10039
2796.94837,0.10028
2794.88876,0.09965
2792.82915,0.09868
2790.76954,0.09794
2788.70993,0.09766
2786.65032,0.09747
2784.59072,0.09723
2782.53111,0.09689
2780.47150,0.09635
2778.41189,0.09596
2776.35228,0.09575
2774.29267,0.09548
2772.23307,0.09525
2770.17346,0.09514
2768.11385,0.09494
2766.05424,0.09453
2763.99463,0.09412
2761.93502,0.09373
2759.87541,0.09334
2757.81581,0.09316
2755.75620,0.09322
2753.69659,0.09331
2751.63698,0.09320
2749.57737,0.09282
2747.51776,0.09231
2745.45815,0.09197
2743.39855,0.09202
2741.33894,0.09221
2739.27933,0.09204
2737.21972,0.09147
2735.16011,0.09071
2733.10050,0.09014
2731.04089,0.08998
2728.98129,0.08976
2726.92168,0.08934
2724.86207,0.08908
2722.80246,0.08890
2720.74285,0.08851
2718.68324,0.08798
2716.62364,0.08757
2714.56403,0.08733
2712.50442,0.08699
2710.44481,0.08667
2708.38520,0.08656
2706.32559,0.08646
2704.26598,0.08633
2702.20638,0.08619
2700.14677,0.08583
2698.08716,0.08532
2696.02755,0.08501
2693.96794,0.08505
2691.90833,0.08505
2689.84872,0.08469
2687.78912,0.08409
2685.72951,0.08358
2683.66990,0.08347
2681.61029,0.08352
2679.55068,0.08337
2677.49107,0.08317
2675.43146,0.08301
2673.37186,0.08280
2671.31225,0.08244
2669.25264,0.08207
2667.19303,0.08180
2665.13342,0.08164
2663.07381,0.08148
2661.01421,0.08123
2658.95460,0.08089
2656.89499,0.08043
2654.83538,0.08007
2652.77577,0.07986
2650.71616,0.07936
2648.65655,0.07865
2646.59695,0.07810
2644.53734,0.07765
2642.47773,0.07721
2640.41812,0.07684
2638.35851,0.07649
2636.29890,0.07597
2634.23929,0.07541
2632.17969,0.07501
2630.12008,0.07452
2628.06047,0.07398
2626.00086,0.07370
2623.94125,0.07363
2621.88164,0.07337
2619.82203,0.07286
2617.76243,0.07242
2615.70282,0.07191
2613.64321,0.07124
2611.58360,0.07078
2609.52399,0.07061
2607.46438,0.07039
2605.40478,0.07007
2603.34517,0.06980
2601.28556,0.06964
2599.22595,0.06955
2597.16634,0.06935
2595.10673,0.06902
2593.04712,0.06861
2590.98752,0.06834
2588.92791,0.06832
2586.86830,0.06829
2584.80869,0.06816
2582.74908,0.06806
2580.68947,0.06795
2578.62986,0.06770
2576.57026,0.06711
2574.51065,0.06643
2572.45104,0.06617
2570.39143,0.06629
2568.33182,0.06637
2566.27221,0.06613
2564.21260,0.06555
2562.15300,0.06511
2560.09339,0.06511
2558.03378,0.06503
2555.97417,0.06449
2553.91456,0.06402
2551.85495,0.06405
2549.79535,0.06411
2547.73574,0.06390
2545.67613,0.06386
2543.61652,0.06378
2541.55691,0.06353
2539.49730,0.06342
2537.43769,0.06335
2535.37809,0.06320
2533.31848,0.06325
2531.25887,0.06349
2529.19926,0.06353
2527.13965,0.06338
2525.08004,0.06322
2523.02043,0.06294
2520.96083,0.06264
2518.90122,0.06236
2516.84161,0.06195
2514.78200,0.06135
2512.72239,0.06082
2510.66278,0.06099
2508.60317,0.06158
2506.54357,0.06170
2504.48396,0.06127
2502.42435,0.06080
2500.36474,0.06060
2498.30513,0.06061
2496.24552,0.06072
2494.18592,0.06069
2492.12631,0.06029
2490.06670,0.05969
2488.00709,0.05919
2485.94748,0.05907
2483.88787,0.05930
2481.82826,0.05935
2479.76866,0.05907
2477.70905,0.05902
2475.64944,0.05953
2473.58983,0.05993
2471.53022,0.05982
2469.47061,0.05970
2467.41100,0.05966
2465.35140,0.05938
2463.29179,0.05909
2461.23218,0.05878
2459.17257,0.05820
2457.11296,0.05808
2455.05335,0.05845
2452.99374,0.05848
2450.93414,0.05818
2448.87453,0.05781
2446.81492,0.05721
2444.75531,0.05660
2442.69570,0.05646
2440.63609,0.05671
2438.57649,0.05682
2436.51688,0.05656
2434.45727,0.05613
2432.39766,0.05586
2430.33805,0.05589
2428.27844,0.05596
2426.21883,0.05580
2424.15923,0.05564
2422.09962,0.05564
2420.04001,0.05551
2417.98040,0.05510
2415.92079,0.05469
2413.86118,0.05451
2411.80157,0.05444
2409.74197,0.05430
2407.68236,0.05428
2405.62275,0.05449
2403.56314,0.05468
2401.50353,0.05452
2399.44392,0.05397
2397.38431,0.05353
2395.32471,0.05350
2393.26510,0.05355
2391.20549,0.05357
2389.14588,0.05362
2387.08627,0.05363
2385.02666,0.05339
2382.96706,0.05289
2380.90745,0.05247
2378.84784,0.05220
2376.78823,0.05200
2374.72862,0.05220
2372.66901,0.05318
2370.60940,0.05431
2368.54980,0.05463
2366.49019,0.05410
2364.43058,0.05333
2362.37097,0.05276
2360.31136,0.05264
2358.25175,0.05295
2356.19214,0.05322
2354.13254,0.05305
2352.07293,0.05285
2350.01332,0.05284
2347.95371,0.05262
2345.89410,0.05245
2343.83449,0.05263
2341.77488,0.05274
2339.71528,0.05254
2337.65567,0.05240
2335.59606,0.05252
2333.53645,0.05239
2331.47684,0.05204
2329.41723,0.05206
2327.35763,0.05267
2325.29802,0.05335
2323.23841,0.05330
2321.17880,0.05270
2319.11919,0.05205
2317.05958,0.05144
2314.99997,0.05104
2312.94037,0.05080
2310.88076,0.05061
2308.82115,0.05036
2306.76154,0.05001
2304.70193,0.04973
2302.64232,0.04954
2300.58271,0.04947
2298.52311,0.04960
2296.46350,0.04954
2294.40389,0.04915
2292.34428,0.04899
2290.28467,0.04925
2288.22506,0.04953
2286.16545,0.04956
2284.10585,0.04912
2282.04624,0.04850
2279.98663,0.04795
2277.92702,0.04761
2275.86741,0.04772
2273.80780,0.04801
2271.74820,0.04812
2269.68859,0.04757
2267.62898,0.04623
2265.56937,0.04529
2263.50976,0.04535
2261.45015,0.04555
2259.39054,0.04531
2257.33094,0.04462
2255.27133,0.04393
2253.21172,0.04390
2251.15211,0.04411
2249.09250,0.04403
2247.03289,0.04399
2244.97328,0.04424
2242.91368,0.04434
2240.85407,0.04381
2238.79446,0.04303
2236.73485,0.04279
2234.67524,0.04307
2232.61563,0.04316
2230.55602,0.04275
2228.49642,0.04237
2226.43681,0.04231
2224.37720,0.04172
2222.31759,0.04085
2220.25798,0.04118
2218.19837,0.04140
2216.13877,0.04035
2214.07916,0.04022
2212.01955,0.04105
2209.95994,0.04105
2207.90033,0.04080
2205.84072,0.04121
2203.78111,0.04168
2201.72151,0.04127
2199.66190,0.04024
2197.60229,0.04015
2195.54268,0.04066
2193.48307,0.04004
2191.42346,0.03920
2189.36385,0.03941
2187.30425,0.03994
2185.24464,0.03978
2183.18503,0.03843
2181.12542,0.03684
2179.06581,0.03627
2177.00620,0.03626
2174.94659,0.03615
2172.88699,0.03679
2170.82738,0.03872
2168.76777,0.04010
2166.70816,0.03912
2164.64855,0.03753
2162.58894,0.03766
2160.52934,0.03676
2158.46973,0.03365
2156.41012,0.03262
2154.35051,0.03412
2152.29090,0.03585
2150.23129,0.03638
2148.17168,0.03614
2146.11208,0.03664
2144.05247,0.03779
2141.99286,0.03859
2139.93325,0.03872
2137.87364,0.03870
2135.81403,0.03903
2133.75442,0.04001
2131.69482,0.04110
2129.63521,0.04131
2127.57560,0.04060
2125.51599,0.03992
2123.45638,0.04011
2121.39677,0.04104
2119.33716,0.04215
2117.27756,0.04281
2115.21795,0.04251
2113.15834,0.04202
2111.09873,0.04230
2109.03912,0.04280
2106.97951,0.04261
2104.91991,0.04212
2102.86030,0.04184
2100.80069,0.04145
2098.74108,0.04122
2096.68147,0.04155
2094.62186,0.04193
2092.56225,0.04226
2090.50265,0.04237
2088.44304,0.04186
2086.38343,0.04139
2084.32382,0.04147
2082.26421,0.04131
2080.20460,0.04059
2078.14499,0.04001
2076.08539,0.04006
2074.02578,0.04060
2071.96617,0.04058
2069.90656,0.03953
2067.84695,0.03893
2065.78734,0.03933
2063.72773,0.03934
2061.66813,0.03861
2059.60852,0.03821
2057.54891,0.03829
2055.48930,0.03829
2053.42969,0.03806
2051.37008,0.03734
2049.31048,0.03667
2047.25087,0.03654
2045.19126,0.03568
2043.13165,0.03394
2041.07204,0.03249
2039.01243,0.03220
2036.95282,0.03254
2034.89322,0.03206
2032.83361,0.03105
2030.77400,0.03018
2028.71439,0.02942
2026.65478,0.02896
2024.59517,0.02853
2022.53556,0.02851
2020.47596,0.02949
2018.41635,0.03065
2016.35674,0.03068
2014.29713,0.02983
2012.23752,0.02998
2010.17791,0.03121
2008.11830,0.03181
2006.05870,0.03206
2003.99909,0.03277
2001.93948,0.03301
1999.87987,0.03226
1997.82026,0.03151
1995.76065,0.03124
1993.70105,0.03105
1991.64144,0.03163
1989.58183,0.03287
1987.52222,0.03321
1985.46261,0.03241
1983.40300,0.03175
1981.34339,0.03156
1979.28379,0.03074
1977.22418,0.02979
1975.16457,0.02945
1973.10496,0.02894
1971.04535,0.02855
1968.98574,0.02858
1966.92613,0.02881
1964.86653,0.02906
1962.80692,0.02892
1960.74731,0.02872
1958.68770,0.02937
1956.62809,0.03075
1954.56848,0.03162
1952.50887,0.03168
1950.44927,0.03173
1948.38966,0.03182
1946.33005,0.03203
1944.27044,0.03252
1942.21083,0.03296
1940.15122,0.03306
1938.09162,0.03284
1936.03201,0.03272
1933.97240,0.03289
1931.91279,0.03286
1929.85318,0.03254
1927.79357,0.03264
1925.73396,0.03321
1923.67436,0.03371
1921.61475,0.03394
1919.55514,0.03403
1917.49553,0.03422
1915.43592,0.03436
1913.37631,0.03429
1911.31670,0.03427
1909.25710,0.03441
1907.19749,0.03457
1905.13788,0.03466
1903.07827,0.03469
1901.01866,0.03465
1898.95905,0.03454
1896.89944,0.03442
1894.83984,0.03444
1892.78023,0.03439
1890.72062,0.03434
1888.66101,0.03451
1886.60140,0.03457
1884.54179,0.03438
1882.48219,0.03426
1880.42258,0.03423
1878.36297,0.03421
1876.30336,0.03448
1874.24375,0.03483
1872.18414,0.03486
1870.12453,0.03477
1868.06493,0.03477
1866.00532,0.03483
1863.94571,0.03473
1861.88610,0.03438
1859.82649,0.03414
1857.76688,0.03423
1855.70727,0.03421
1853.64767,0.03406
1851.58806,0.03413
1849.52845,0.03429
1847.46884,0.03412
1845.40923,0.03387
1843.34962,0.03410
1841.29002,0.03437
1839.23041,0.03427
1837.17080,0.03403
1835.11119,0.03402
1833.05158,0.03432
1830.99197,0.03456
1828.93236,0.03445
1826.87276,0.03414
1824.81315,0.03391
1822.75354,0.03383
1820.69393,0.03374
1818.63432,0.03347
1816.57471,0.03327
1814.51510,0.03338
1812.45550,0.03363
1810.39589,0.03383
1808.33628,0.03389
1806.27667,0.03386
1804.21706,0.03376
1802.15745,0.03363
1800.09784,0.03364
1798.03824,0.03370
1795.97863,0.03374
1793.91902,0.03377
1791.85941,0.03380
1789.79980,0.03388
1787.74019,0.03390
1785.68059,0.03378
1783.62098,0.03373
1781.56137,0.03379
1779.50176,0.03365
1777.44215,0.03339
1775.38254,0.03333
1773.32293,0.03345
1771.26333,0.03361
1769.20372,0.03367
1767.14411,0.03350
1765.08450,0.03329
1763.02489,0.03326
1760.96528,0.03345
1758.90567,0.03363
1756.84607,0.03358
1754.78646,0.03338
1752.72685,0.03327
1750.66724,0.03339
1748.60763,0.03353
1746.54802,0.03356
1744.48841,0.03352
1742.42881,0.03345
1740.36920,0.03347
1738.30959,0.03358
1736.24998,0.03375
1734.19037,0.03401
1732.13076,0.03399
1730.07116,0.03362
1728.01155,0.03345
1725.95194,0.03361
1723.89233,0.03386
1721.83272,0.03405
1719.77311,0.03423
1717.71350,0.03454
1715.65390,0.03499
1713.59429,0.03536
1711.53468,0.03563
1709.47507,0.03590
1707.41546,0.03622
1705.35585,0.03648
1703.29624,0.03662
1701.23664,0.03706
1699.17703,0.03785
1697.11742,0.03852
1695.05781,0.03930
1692.99820,0.04003
1690.93859,0.04072
1688.87898,0.04160
1686.81938,0.04249
1684.75977,0.04360
1682.70016,0.04488
1680.64055,0.04583
1678.58094,0.04678
1676.52133,0.04794
1674.46173,0.04923
1672.40212,0.05032
1670.34251,0.05159
1668.28290,0.05316
1666.22329,0.05423
1664.16368,0.05516
1662.10407,0.05642
1660.04447,0.05760
1657.98486,0.05841
1655.92525,0.05900
1653.86564,0.05999
1651.80603,0.06149
1649.74642,0.06213
1647.68681,0.06246
1645.62721,0.06306
1643.56760,0.06347
1641.50799,0.06345
1639.44838,0.06325
1637.38877,0.06301
1635.32916,0.06253
1633.26955,0.06157
1631.20995,0.06055
1629.15034,0.05968
1627.09073,0.05881
1625.03112,0.05769
1622.97151,0.05631
1620.91190,0.05505
1618.85230,0.05398
1616.79269,0.05270
1614.73308,0.05128
1612.67347,0.05009
1610.61386,0.04901
1608.55425,0.04794
1606.49464,0.04695
1604.43504,0.04599
1602.37543,0.04498
1600.31582,0.04400
1598.25621,0.04312
1596.19660,0.04231
1594.13699,0.04166
1592.07738,0.04112
1590.01778,0.04051
1587.95817,0.03995
1585.89856,0.03953
1583.83895,0.03905
1581.77934,0.03847
1579.71973,0.03803
1577.66012,0.03774
1575.60052,0.03757
1573.54091,0.03736
1571.48130,0.03695
1569.42169,0.03650
1567.36208,0.03625
1565.30247,0.03609
1563.24287,0.03592
1561.18326,0.03566
1559.12365,0.03532
1557.06404,0.03524
1555.00443,0.03524
1552.94482,0.03505
1550.88521,0.03476
1548.82561,0.03455
1546.76600,0.03440
1544.70639,0.03428
1542.64678,0.03430
1540.58717,0.03445
1538.52756,0.03453
1536.46795,0.03426
1534.40835,0.03385
1532.34874,0.03364
1530.28913,0.03362
1528.22952,0.03358
1526.16991,0.03365
1524.11030,0.03382
1522.05069,0.03383
1519.99109,0.03358
1517.93148,0.03334
1515.87187,0.03333
1513.81226,0.03346
1511.75265,0.03352
1509.69304,0.03344
1507.63344,0.03341
1505.57383,0.03361
1503.51422,0.03373
1501.45461,0.03377
1499.39500,0.03392
1497.33539,0.03419
1495.27578,0.03450
1493.21618,0.03480
1491.15657,0.03528
1489.09696,0.03600
1487.03735,0.03672
1484.97774,0.03737
1482.91813,0.03816
1480.85852,0.03932
1478.79892,0.04085
1476.73931,0.04274
1474.67970,0.04498
1472.62009,0.04755
1470.56048,0.05004
1468.50087,0.05199
1466.44126,0.05387
1464.38166,0.05595
1462.32205,0.05757
1460.26244,0.05859
1458.20283,0.05964
1456.14322,0.06116
1454.08361,0.06255
1452.02401,0.06358
1449.96440,0.06423
1447.90479,0.06444
1445.84518,0.06443
1443.78557,0.06443
1441.72596,0.06458
1439.66635,0.06495
1437.60675,0.06573
1435.54714,0.06698
1433.48753,0.06817
1431.42792,0.06945
1429.36831,0.07102
1427.30870,0.07258
1425.24909,0.07411
1423.18949,0.07560
1421.12988,0.07689
1419.07027,0.07833
1417.01066,0.07961
1414.95105,0.08012
1412.89144,0.08016
1410.83183,0.07982
1408.77223,0.07900
1406.71262,0.07783
1404.65301,0.07637
1402.59340,0.07460
1400.53379,0.07272
1398.47418,0.07102
1396.41458,0.06991
1394.35497,0.06960
1392.29536,0.06976
1390.23575,0.06998
1388.17614,0.07003
1386.11653,0.06964
1384.05692,0.06894
1381.99732,0.06845
1379.93771,0.06866
1377.87810,0.06974
1375.81849,0.07154
1373.75888,0.07372
1371.69927,0.07572
1369.63966,0.07738
1367.58006,0.07871
1365.52045,0.07937
1363.46084,0.07898
1361.40123,0.07766
1359.34162,0.07629
1357.28201,0.07564
1355.22240,0.07575
1353.16280,0.07616
1351.10319,0.07647
1349.04358,0.07653
1346.98397,0.07644
1344.92436,0.07653
1342.86475,0.07702
1340.80515,0.07787
1338.74554,0.07906
1336.68593,0.08023
1334.62632,0.08084
1332.56671,0.08067
1330.50710,0.07984
1328.44749,0.07847
1326.38789,0.07670
1324.32828,0.07450
1322.26867,0.07185
1320.20906,0.06909
1318.14945,0.06655
1316.08984,0.06446
1314.03023,0.06291
1311.97063,0.06191
1309.91102,0.06144
1307.85141,0.06141
1305.79180,0.06169
1303.73219,0.06224
1301.67258,0.06289
1299.61297,0.06341
1297.55337,0.06365
1295.49376,0.06351
1293.43415,0.06281
1291.37454,0.06146
1289.31493,0.05970
1287.25532,0.05789
1285.19572,0.05621
1283.13611,0.05473
1281.07650,0.05353
1279.01689,0.05253
1276.95728,0.05172
1274.89767,0.05117
1272.83806,0.05092
1270.77846,0.05093
1268.71885,0.05116
1266.65924,0.05151
1264.59963,0.05178
1262.54002,0.05196
1260.48041,0.05215
1258.42080,0.05231
1256.36120,0.05254
1254.30159,0.05284
1252.24198,0.05291
1250.18237,0.05261
1248.12276,0.05213
1246.06315,0.05168
1244.00354,0.05129
1241.94394,0.05076
1239.88433,0.05004
1237.82472,0.04919
1235.76511,0.04827
1233.70550,0.04729
1231.64589,0.04618
1229.58629,0.04495
1227.52668,0.04364
1225.46707,0.04224
1223.40746,0.04082
1221.34785,0.03951
1219.28824,0.03843
1217.22863,0.03765
1215.16903,0.03727
1213.10942,0.03738
1211.04981,0.03789
1208.99020,0.03878
1206.93059,0.03983
1204.87098,0.04049
1202.81137,0.04025
1200.75177,0.03909
1198.69216,0.03741
1196.63255,0.03566
1194.57294,0.03405
1192.51333,0.03267
1190.45372,0.03153
1188.39411,0.03068
1186.33451,0.03015
1184.27490,0.02995
1182.21529,0.03005
1180.15568,0.03053
1178.09607,0.03172
1176.03646,0.03372
1173.97686,0.03668
1171.91725,0.04130
1169.85764,0.04839
1167.79803,0.05831
1165.73842,0.07091
1163.67881,0.08546
1161.61920,0.10093
1159.55960,0.11640
1157.49999,0.13071
1155.44038,0.14216
1153.38077,0.14911
1151.32116,0.15074
1149.26155,0.14713
1147.20194,0.13926
1145.14234,0.12870
1143.08273,0.11727
1141.02312,0.10681
1138.96351,0.09880
1136.90390,0.09369
1134.84429,0.09099
1132.78468,0.08989
1130.72508,0.08982
1128.66547,0.09042
1126.60586,0.09103
1124.54625,0.09102
1122.48664,0.09039
1120.42703,0.08952
1118.36743,0.08880
1116.30782,0.08871
1114.24821,0.08979
1112.18860,0.09199
1110.12899,0.09468
1108.06938,0.09738
1106.00977,0.10002
1103.95017,0.10257
1101.89056,0.10476
1099.83095,0.10591
1097.77134,0.10550
1095.71173,0.10410
1093.65212,0.10312
1091.59251,0.10420
1089.53291,0.10902
1087.47330,0.11840
1085.41369,0.13164
1083.35408,0.14664
1081.29447,0.16016
1079.23486,0.16921
1077.17525,0.17239
1075.11565,0.16966
1073.05604,0.16166
1070.99643,0.15065
1068.93682,0.14107
1066.87721,0.13672
1064.81760,0.13825
1062.75800,0.14438
1060.69839,0.15406
1058.63878,0.16615
1056.57917,0.17835
1054.51956,0.18808
1052.45995,0.19440
1050.40034,0.19827
1048.34074,0.20123
1046.28113,0.20438
1044.22152,0.20845
1042.16191,0.21415
1040.10230,0.22178
1038.04269,0.23125
1035.98308,0.24252
1033.92348,0.25539
1031.86387,0.26958
1029.80426,0.28473
1027.74465,0.29968
1025.68504,0.31271
1023.62543,0.32206
1021.56582,0.32652
1019.50622,0.32566
1017.44661,0.31963
1015.38700,0.30932
1013.32739,0.29622
1011.26778,0.28276
1009.20817,0.27202
1007.14857,0.26610
1005.08896,0.26489
1003.02935,0.26689
1000.96974,0.27036
998.91013,0.27369
996.85052,0.27514
994.79091,0.27297
992.73131,0.26574
990.67170,0.25328
988.61209,0.23727
986.55248,0.22009
984.49287,0.20335
982.43326,0.18784
980.37365,0.17394
978.31405,0.16158
976.25444,0.15042
974.19483,0.14041
972.13522,0.13150
970.07561,0.12345
968.01600,0.11624
965.95639,0.10985
963.89679,0.10407
961.83718,0.09888
959.77757,0.09452
957.71796,0.09126
955.65835,0.08984
953.59874,0.09154
951.53914,0.09719
949.47953,0.10512
947.41992,0.11128
945.36031,0.11300
943.30070,0.11210
941.24109,0.11191
939.18148,0.11269
937.12188,0.11230
935.06227,0.10948
933.00266,0.10486
930.94305,0.09989
928.88344,0.09556
926.82383,0.09191
924.76422,0.08862
922.70462,0.08548
920.64501,0.08251
918.58540,0.07979
916.52579,0.07730
914.46618,0.07508
912.40657,0.07328
910.34696,0.07187
908.28736,0.07057
906.22775,0.06901
904.16814,0.06710
902.10853,0.06508
900.04892,0.06343
897.98931,0.06239
895.92971,0.06189
893.87010,0.06181
891.81049,0.06186
889.75088,0.06180
887.69127,0.06145
885.63166,0.06068
883.57205,0.05959
881.51245,0.05864
879.45284,0.05825
877.39323,0.05866
875.33362,0.05990
873.27401,0.06184
871.21440,0.06461
869.15479,0.06827
867.09519,0.07193
865.03558,0.07459
862.97597,0.07603
860.91636,0.07664
858.85675,0.07699
856.79714,0.07720
854.73753,0.07725
852.67793,0.07731
850.61832,0.07724
848.55871,0.07676
846.49910,0.07586
844.43949,0.07476
842.37988,0.07357
840.32028,0.07215
838.26067,0.07050
836.20106,0.06878
834.14145,0.06707
832.08184,0.06565
830.02223,0.06462
827.96262,0.06370
825.90302,0.06292
823.84341,0.06257
821.78380,0.06267
819.72419,0.06282
817.66458,0.06286
815.60497,0.06294
813.54536,0.06301
811.48576,0.06304
809.42615,0.06316
807.36654,0.06352
805.30693,0.06401
803.24732,0.06449
801.18771,0.06517
799.12810,0.06609
797.06850,0.06698
795.00889,0.06752
792.94928,0.06768
790.88967,0.06776
788.83006,0.06803
786.77045,0.06853
784.71085,0.06933
782.65124,0.07046
780.59163,0.07169
778.53202,0.07259
776.47241,0.07301
774.41280,0.07319
772.35319,0.07354
770.29359,0.07439
768.23398,0.07613
766.17437,0.07886
764.11476,0.08221
762.05515,0.08550
759.99554,0.08818
757.93593,0.09050
755.87633,0.09259
753.81672,0.09346
751.75711,0.09223
749.69750,0.08941
747.63789,0.08633
745.57828,0.08397
743.51867,0.08243
741.45907,0.08149
739.39946,0.08102
737.33985,0.08091
735.28024,0.08095
733.22063,0.08101
731.16102,0.08109
729.10142,0.08117
727.04181,0.08126
724.98220,0.08142
722.92259,0.08176
720.86298,0.08240
718.80337,0.08335
716.74376,0.08486
714.68416,0.08716
712.62455,0.09004
710.56494,0.09314
708.50533,0.09583
706.44572,0.09727
704.38611,0.09725
702.32650,0.09636
700.26690,0.09511
698.20729,0.09381
696.14768,0.09277
694.08807,0.09200
692.02846,0.09142
689.96885,0.09110
687.90924,0.09084
685.84964,0.09062
683.79003,0.09061
681.73042,0.09075
679.67081,0.09082
677.61120,0.09079
675.55159,0.09075
673.49199,0.09075
671.43238,0.09076
669.37277,0.09093
667.31316,0.09134
665.25355,0.09149
663.19394,0.09167
661.13433,0.09217
659.07473,0.09274
657.01512,0.09320
654.95551,0.09358
652.89590,0.09402
650.83629,0.09450
648.77668,0.09472
646.71707,0.09459
644.65747,0.09440
642.59786,0.09417
640.53825,0.09394
638.47864,0.09382
636.41903,0.09372
634.35942,0.09369
632.29981,0.09358
630.24021,0.09324
628.18060,0.09294
626.12099,0.09274
624.06138,0.09275
622.00177,0.09326
619.94216,0.09447
617.88256,0.09685
615.82295,0.10038
613.76334,0.10401
611.70373,0.10685
609.64412,0.10870
607.58451,0.10956
605.52490,0.10965
603.46530,0.10930
601.40569,0.10845
599.34608,0.10720
597.28647,0.10613
595.22686,0.10578
593.16725,0.10644
591.10764,0.10840
589.04804,0.11151
586.98843,0.11519
584.92882,0.11897
582.86921,0.12268
580.80960,0.12607
578.74999,0.12869
576.69039,0.13013
574.63078,0.13041
572.57117,0.12967
570.51156,0.12799
568.45195,0.12542
566.39234,0.12191
564.33273,0.11797
562.27313,0.11435
560.21352,0.11115
558.15391,0.10840
556.09430,0.10613
554.03469,0.10409
551.97508,0.10225
549.91547,0.10095
547.85587,0.10040
545.79626,0.10061
543.73665,0.10155
541.67704,0.10288
539.61743,0.10428
537.55782,0.10587
535.49821,0.10781
533.43861,0.11022
531.37900,0.11266
529.31939,0.11420
527.25978,0.11420
525.20017,0.11318
523.14056,0.11193
521.08096,0.11031
519.02135,0.10830
516.96174,0.10625
514.90213,0.10446
512.84252,0.10309
510.78291,0.10201
508.72330,0.10105
506.66370,0.10012
504.60409,0.09912
502.54448,0.09815
500.48487,0.09725
498.42526,0.09642
496.36565,0.09566
494.30604,0.09477
492.24644,0.09394
490.18683,0.09367
488.12722,0.09383
486.06761,0.09379
484.00800,0.09343
481.94839,0.09316
479.88878,0.09299
477.82918,0.09281
475.76957,0.09254
473.70996,0.09198
471.65035,0.09094
469.59074,0.08946
467.53113,0.08803
465.47153,0.08717
463.41192,0.08646
461.35231,0.08529
459.29270,0.08412
457.23309,0.08350
455.17348,0.08336
453.11387,0.08370
451.05427,0.08425
448.99466,0.08473
446.93505,0.08544
444.87544,0.08626
442.81583,0.08686
440.75622,0.08737
438.69661,0.08783
436.63701,0.08812
434.57740,0.08803
432.51779,0.08752
430.45818,0.08689
428.39857,0.08642
426.33896,0.08609
424.27935,0.08540
422.21975,0.08427
420.16014,0.08304
418.10053,0.08184
416.04092,0.08148
413.98131,0.08216
411.92170,0.08318
409.86210,0.08407
407.80249,0.08472
405.74288,0.08497
403.68327,0.08484
401.62366,0.08415
399.56405,0.08248
397.50444,0.08036
395.44484,0.07907
393.38523,0.07839
391.32562,0.07728
389.26601,0.07598
387.20640,0.07511
385.14679,0.07445
383.08718,0.07398
381.02758,0.07363
378.96797,0.07294
376.90836,0.07191
374.84875,0.07077
372.78914,0.06998
370.72953,0.06968
368.66992,0.06965
366.61032,0.06980
364.55071,0.07059
362.49110,0.07202
360.43149,0.07318
358.37188,0.07360
356.31227,0.07454
354.25267,0.07668
352.19306,0.07738
350.13345,0.07452
348.07384,0.07079
346.01423,0.06951
343.95462,0.06949
341.89501,0.06796
339.83541,0.06572
337.77580,0.06403
335.71619,0.06239
333.65658,0.05963
331.59697,0.05678
329.53736,0.05835
327.47775,0.06630
325.41815,0.06917
323.35854,0.06528
321.29893,0.06468
319.23932,0.06368
317.17971,0.06140
315.12010,0.06049
313.06049,0.06262
311.00089,0.06465
308.94128,0.05852
306.88167,0.05571
304.82206,0.05925
302.76245,0.05159
300.70284,0.04791
298.64324,0.06060
296.58363,0.05064
294.52402,0.02498
292.46441,-0.00429
290.40480,-0.03751
288.34519,-0.04604
286.28558,0.02389
284.22598,0.03317
282.16637,0.05739
280.10676,0.07240
278.04715,0.05773
275.98754,0.09189
273.92793,0.06197
271.86832,0.01360
269.80872,-0.01173
267.74911,0.07755
265.68950,0.16542
263.62989,0.02481
261.57028,-0.01300
259.51067,0.02030
257.45106,0.05315
255.39146,0.06017
253.33185,0.10341
251.27224,0.11515
249.21263,0.04186
247.15302,-0.05278
245.09341,-0.07480
243.03381,0.02466
240.97420,0.01455
238.91459,-0.06239
236.85498,-0.09925
234.79537,0.02640
232.73576,0.02125
230.67615,-0.00803
228.61655,0.03544
226.55694,-0.04496
224.49733,-0.11373
222.43772,-0.11012
220.37811,-0.04410
218.31850,0.01867
216.25889,0.04967
214.19929,0.06596
212.13968,0.04175
210.08007,-0.02537
208.02046,-0.02454
205.96085,0.01092
203.90124,0.04763
201.84163,0.03413
199.78203,-0.01747
197.72242,-0.06228
195.66281,-0.07841
193.60320,-0.02751
191.54359,-0.00019
189.48398,0.06172
187.42438,0.01832
185.36477,0.02654
183.30516,-0.02392
181.24555,0.00472
179.18594,0.02574
177.12633,-0.00330
175.06672,-0.00136
173.00712,0.07478
170.94751,0.01481
168.88790,-0.03489
166.82829,-0.06830
164.76868,0.00473
162.70907,0.00318
160.64946,0.00919
158.58986,-0.00043
156.53025,-0.06733
154.47064,-0.01195
152.41103,0.01841
150.35142,0.03089
148.29181,0.04247
146.23220,0.08031
144.17260,0.05865
142.11299,-0.00116
140.05338,-0.05550
137.99377,-0.00770
135.93416,0.02164
133.87455,0.03766
131.81495,0.01345
129.75534,-0.04936
127.69573,-0.04803
125.63612,-0.06376
123.57651,-0.03408
121.51690,-0.00528
119.45729,-0.01029
117.39769,-0.04226
115.33808,0.00666
113.27847,-0.07509
111.21886,-0.05905
109.15925,-0.01988
107.09964,0.00074
105.04003,0.05819
102.98043,0.00080
100.92082,0.00718
98.86121,0.06665
96.80160,0.05551
94.74199,0.01076
92.68238,-0.01441
90.62277,0.00680
88.56317,0.03498
86.50356,0.07287
84.44395,0.00225
82.38434,-0.01681
80.32473,-0.00218
78.26512,0.01765
76.20552,-0.00022
74.14591,0.01597
72.08630,0.02626
70.02669,0.02001
67.96708,0.00880
65.90747,0.02361
63.84786,0.01259
61.78826,0.00468
59.72865,0.00118
57.66904,-0.00863
55.60943,-0.00274
53.54982,-0.00600
51.49021,-0.01191
49.43060,-0.00976
47.37100,-0.00347
45.31139,-0.00424
43.25178,-0.00763
41.19217,-0.00017
39.13256,0.00993
37.07295,0.00274
35.01334,0.00578
32.95374,0.00591
30.89413,0.00387
28.83452,0.00207
26.77491,0.00160
24.71530,-0.00090
22.65569,0.00316
20.59609,0.00471
18.53648,0.00127
16.47687,0.00723
14.41726,0.00008
12.35765,-0.00198
10.29804,0.00068
8.23843,0.00177
6.17883,0.00016
4.11922,-0.00007
2.05961,-0.00005
0.00000,0.00000
