3997.65486	0.03958
3995.59527	0.04034
3993.53569	0.04100
3991.47610	0.04105
3989.41652	0.04058
3987.35693	0.03998
3985.29735	0.03960
3983.23776	0.03938
3981.17817	0.03923
3979.11859	0.03950
3977.05900	0.03994
3974.99942	0.03980
3972.93983	0.03938
3970.88025	0.03938
3968.82066	0.03936
3966.76108	0.03877
3964.70149	0.03816
3962.64191	0.03817
3960.58232	0.03852
3958.52274	0.03877
3956.46315	0.03889
3954.40357	0.03907
3952.34398	0.03923
3950.28440	0.03926
3948.22481	0.03918
3946.16523	0.03907
3944.10564	0.03905
3942.04606	0.03881
3939.98647	0.03836
3937.92689	0.03854
3935.86730	0.03923
3933.80772	0.03945
3931.74813	0.03914
3929.68855	0.03853
3927.62896	0.03780
3925.56937	0.03746
3923.50979	0.03771
3921.45020	0.03826
3919.39062	0.03896
3917.33103	0.03953
3915.27145	0.03963
3913.21186	0.03925
3911.15228	0.03862
3909.09269	0.03815
3907.03311	0.03813
3904.97352	0.03827
3902.91394	0.03841
3900.85435	0.03874
3898.79477	0.03881
3896.73518	0.03816
3894.67560	0.03730
3892.61601	0.03696
3890.55643	0.03748
3888.49684	0.03835
3886.43726	0.03857
3884.37767	0.03788
3882.31809	0.03704
3880.25850	0.03674
3878.19892	0.03698
3876.13933	0.03728
3874.07974	0.03747
3872.02016	0.03787
3869.96057	0.03832
3867.90099	0.03808
3865.84140	0.03727
3863.78182	0.03671
3861.72223	0.03672
3859.66265	0.03708
3857.60306	0.03742
3855.54348	0.03776
3853.48389	0.03797
3851.42431	0.03755
3849.36472	0.03693
3847.30514	0.03655
3845.24555	0.03634
3843.18597	0.03642
3841.12638	0.03694
3839.06680	0.03766
3837.00721	0.03831
3834.94763	0.03862
3832.88804	0.03839
3830.82846	0.03758
3828.76887	0.03660
3826.70929	0.03623
3824.64970	0.03663
3822.59012	0.03725
3820.53053	0.03767
3818.47094	0.03762
3816.41136	0.03701
3814.35177	0.03627
3812.29219	0.03592
3810.23260	0.03606
3808.17302	0.03626
3806.11343	0.03585
3804.05385	0.03503
3801.99426	0.03464
3799.93468	0.03512
3797.87509	0.03632
3795.81551	0.03735
3793.75592	0.03745
3791.69634	0.03705
3789.63675	0.03669
3787.57717	0.03621
3785.51758	0.03576
3783.45800	0.03582
3781.39841	0.03642
3779.33883	0.03659
3777.27924	0.03560
3775.21966	0.03465
3773.16007	0.03494
3771.10049	0.03586
3769.04090	0.03642
3766.98132	0.03641
3764.92173	0.03594
3762.86214	0.03530
3760.80256	0.03505
3758.74297	0.03543
3756.68339	0.03609
3754.62380	0.03633
3752.56422	0.03589
3750.50463	0.03529
3748.44505	0.03483
3746.38546	0.03427
3744.32588	0.03384
3742.26629	0.03399
3740.20671	0.03428
3738.14712	0.03431
3736.08754	0.03416
3734.02795	0.03403
3731.96837	0.03404
3729.90878	0.03424
3727.84920	0.03437
3725.78961	0.03417
3723.73003	0.03379
3721.67044	0.03360
3719.61086	0.03356
3717.55127	0.03356
3715.49169	0.03365
3713.43210	0.03373
3711.37251	0.03391
3709.31293	0.03422
3707.25334	0.03422
3705.19376	0.03400
3703.13417	0.03415
3701.07459	0.03464
3699.01500	0.03451
3696.95542	0.03342
3694.89583	0.03232
3692.83625	0.03195
3690.77666	0.03226
3688.71708	0.03303
3686.65749	0.03347
3684.59791	0.03291
3682.53832	0.03216
3680.47874	0.03225
3678.41915	0.03328
3676.35957	0.03445
3674.29998	0.03483
3672.24040	0.03449
3670.18081	0.03411
3668.12123	0.03374
3666.06164	0.03338
3664.00206	0.03338
3661.94247	0.03356
3659.88289	0.03354
3657.82330	0.03336
3655.76371	0.03305
3653.70413	0.03271
3651.64454	0.03269
3649.58496	0.03305
3647.52537	0.03341
3645.46579	0.03349
3643.40620	0.03327
3641.34662	0.03286
3639.28703	0.03266
3637.22745	0.03318
3635.16786	0.03400
3633.10828	0.03431
3631.04869	0.03427
3628.98911	0.03478
3626.92952	0.03583
3624.86994	0.03656
3622.81035	0.03630
3620.75077	0.03514
3618.69118	0.03410
3616.63160	0.03402
3614.57201	0.03457
3612.51243	0.03502
3610.45284	0.03493
3608.39326	0.03468
3606.33367	0.03480
3604.27408	0.03509
3602.21450	0.03540
3600.15491	0.03583
3598.09533	0.03617
3596.03574	0.03624
3593.97616	0.03623
3591.91657	0.03662
3589.85699	0.03751
3587.79740	0.03815
3585.73782	0.03790
3583.67823	0.03739
3581.61865	0.03752
3579.55906	0.03810
3577.49948	0.03850
3575.43989	0.03866
3573.38031	0.03876
3571.32072	0.03877
3569.26114	0.03873
3567.20155	0.03862
3565.14197	0.03832
3563.08238	0.03803
3561.02280	0.03820
3558.96321	0.03909
3556.90363	0.04006
3554.84404	0.04038
3552.78446	0.04046
3550.72487	0.04068
3548.66528	0.04090
3546.60570	0.04092
3544.54611	0.04075
3542.48653	0.04080
3540.42694	0.04138
3538.36736	0.04225
3536.30777	0.04284
3534.24819	0.04286
3532.18860	0.04248
3530.12902	0.04231
3528.06943	0.04273
3526.00985	0.04322
3523.95026	0.04347
3521.89068	0.04391
3519.83109	0.04437
3517.77151	0.04421
3515.71192	0.04367
3513.65234	0.04347
3511.59275	0.04382
3509.53317	0.04451
3507.47358	0.04530
3505.41400	0.04561
3503.35441	0.04541
3501.29483	0.04552
3499.23524	0.04606
3497.17565	0.04663
3495.11607	0.04703
3493.05648	0.04723
3490.99690	0.04753
3488.93731	0.04790
3486.87773	0.04799
3484.81814	0.04795
3482.75856	0.04836
3480.69897	0.04892
3478.63939	0.04882
3476.57980	0.04834
3474.52022	0.04824
3472.46063	0.04848
3470.40105	0.04867
3468.34146	0.04904
3466.28188	0.04960
3464.22229	0.04994
3462.16271	0.05030
3460.10312	0.05100
3458.04354	0.05174
3455.98395	0.05244
3453.92437	0.05303
3451.86478	0.05318
3449.80520	0.05305
3447.74561	0.05307
3445.68603	0.05329
3443.62644	0.05349
3441.56685	0.05377
3439.50727	0.05412
3437.44768	0.05418
3435.38810	0.05425
3433.32851	0.05475
3431.26893	0.05551
3429.20934	0.05611
3427.14976	0.05638
3425.09017	0.05673
3423.03059	0.05758
3420.97100	0.05846
3418.91142	0.05893
3416.85183	0.05925
3414.79225	0.05951
3412.73266	0.05967
3410.67308	0.05990
3408.61349	0.06032
3406.55391	0.06094
3404.49432	0.06159
3402.43474	0.06230
3400.37515	0.06305
3398.31557	0.06353
3396.25598	0.06379
3394.19640	0.06383
3392.13681	0.06366
3390.07723	0.06371
3388.01764	0.06425
3385.95805	0.06488
3383.89847	0.06514
3381.83888	0.06529
3379.77930	0.06580
3377.71971	0.06651
3375.66013	0.06693
3373.60054	0.06698
3371.54096	0.06707
3369.48137	0.06767
3367.42179	0.06883
3365.36220	0.06994
3363.30262	0.07050
3361.24303	0.07087
3359.18345	0.07175
3357.12386	0.07300
3355.06428	0.07397
3353.00469	0.07444
3350.94511	0.07493
3348.88552	0.07561
3346.82594	0.07608
3344.76635	0.07651
3342.70677	0.07749
3340.64718	0.07881
3338.58760	0.07990
3336.52801	0.08099
3334.46842	0.08234
3332.40884	0.08351
3330.34925	0.08423
3328.28967	0.08496
3326.23008	0.08601
3324.17050	0.08681
3322.11091	0.08707
3320.05133	0.08764
3317.99174	0.08873
3315.93216	0.08960
3313.87257	0.09021
3311.81299	0.09118
3309.75340	0.09256
3307.69382	0.09392
3305.63423	0.09516
3303.57465	0.09646
3301.51506	0.09774
3299.45548	0.09901
3297.39589	0.10051
3295.33631	0.10199
3293.27672	0.10307
3291.21714	0.10399
3289.15755	0.10495
3287.09797	0.10574
3285.03838	0.10659
3282.97880	0.10768
3280.91921	0.10817
3278.85962	0.10786
3276.80004	0.10748
3274.74045	0.10746
3272.68087	0.10786
3270.62128	0.10817
3268.56170	0.10795
3266.50211	0.10714
3264.44253	0.10577
3262.38294	0.10408
3260.32336	0.10245
3258.26377	0.10125
3256.20419	0.10036
3254.14460	0.09930
3252.08502	0.09794
3250.02543	0.09664
3247.96585	0.09558
3245.90626	0.09470
3243.84668	0.09366
3241.78709	0.09235
3239.72751	0.09117
3237.66792	0.09052
3235.60834	0.09033
3233.54875	0.09004
3231.48917	0.08919
3229.42958	0.08821
3227.36999	0.08749
3225.31041	0.08672
3223.25082	0.08576
3221.19124	0.08470
3219.13165	0.08373
3217.07207	0.08309
3215.01248	0.08264
3212.95290	0.08199
3210.89331	0.08126
3208.83373	0.08078
3206.77414	0.08059
3204.71456	0.08044
3202.65497	0.07992
3200.59539	0.07890
3198.53580	0.07777
3196.47622	0.07700
3194.41663	0.07657
3192.35705	0.07625
3190.29746	0.07595
3188.23788	0.07536
3186.17829	0.07426
3184.11871	0.07311
3182.05912	0.07230
3179.99954	0.07163
3177.93995	0.07084
3175.88037	0.07010
3173.82078	0.06971
3171.76119	0.06939
3169.70161	0.06880
3167.64202	0.06798
3165.58244	0.06702
3163.52285	0.06622
3161.46327	0.06573
3159.40368	0.06520
3157.34410	0.06449
3155.28451	0.06390
3153.22493	0.06355
3151.16534	0.06330
3149.10576	0.06312
3147.04617	0.06290
3144.98659	0.06247
3142.92700	0.06196
3140.86742	0.06148
3138.80783	0.06098
3136.74825	0.06049
3134.68866	0.06009
3132.62908	0.05977
3130.56949	0.05950
3128.50991	0.05927
3126.45032	0.05919
3124.39074	0.05917
3122.33115	0.05911
3120.27156	0.05877
3118.21198	0.05808
3116.15239	0.05766
3114.09281	0.05791
3112.03322	0.05828
3109.97364	0.05813
3107.91405	0.05773
3105.85447	0.05733
3103.79488	0.05700
3101.73530	0.05722
3099.67571	0.05780
3097.61613	0.05796
3095.55654	0.05761
3093.49696	0.05745
3091.43737	0.05758
3089.37779	0.05771
3087.31820	0.05790
3085.25862	0.05799
3083.19903	0.05780
3081.13945	0.05765
3079.07986	0.05766
3077.02028	0.05772
3074.96069	0.05790
3072.90111	0.05813
3070.84152	0.05832
3068.78194	0.05839
3066.72235	0.05830
3064.66276	0.05814
3062.60318	0.05798
3060.54359	0.05754
3058.48401	0.05689
3056.42442	0.05657
3054.36484	0.05648
3052.30525	0.05618
3050.24567	0.05565
3048.18608	0.05524
3046.12650	0.05522
3044.06691	0.05517
3042.00733	0.05477
3039.94774	0.05430
3037.88816	0.05385
3035.82857	0.05333
3033.76899	0.05271
3031.70940	0.05212
3029.64982	0.05185
3027.59023	0.05159
3025.53065	0.05102
3023.47106	0.05046
3021.41148	0.05006
3019.35189	0.04977
3017.29231	0.04954
3015.23272	0.04929
3013.17313	0.04906
3011.11355	0.04872
3009.05396	0.04849
3006.99438	0.04879
3004.93479	0.04917
3002.87521	0.04898
3000.81562	0.04859
2998.75604	0.04870
2996.69645	0.04918
2994.63687	0.04952
2992.57728	0.04963
2990.51770	0.04968
2988.45811	0.04984
2986.39853	0.05004
2984.33894	0.05034
2982.27936	0.05085
2980.21977	0.05131
2978.16019	0.05168
2976.10060	0.05226
2974.04102	0.05297
2971.98143	0.05356
2969.92185	0.05416
2967.86226	0.05468
2965.80268	0.05485
2963.74309	0.05476
2961.68351	0.05467
2959.62392	0.05462
2957.56433	0.05472
2955.50475	0.05501
2953.44516	0.05513
2951.38558	0.05508
2949.32599	0.05519
2947.26641	0.05548
2945.20682	0.05585
2943.14724	0.05626
2941.08765	0.05683
2939.02807	0.05790
2936.96848	0.05948
2934.90890	0.06114
2932.84931	0.06258
2930.78973	0.06385
2928.73014	0.06513
2926.67056	0.06648
2924.61097	0.06760
2922.55139	0.06834
2920.49180	0.06899
2918.43222	0.06955
2916.37263	0.06934
2914.31305	0.06776
2912.25346	0.06532
2910.19388	0.06289
2908.13429	0.06085
2906.07471	0.05928
2904.01512	0.05807
2901.95553	0.05712
2899.89595	0.05637
2897.83636	0.05576
2895.77678	0.05514
2893.71719	0.05454
2891.65761	0.05407
2889.59802	0.05364
2887.53844	0.05315
2885.47885	0.05282
2883.41927	0.05270
2881.35968	0.05260
2879.30010	0.05239
2877.24051	0.05236
2875.18093	0.05270
2873.12134	0.05297
2871.06176	0.05281
2869.00217	0.05227
2866.94259	0.05153
2864.88300	0.05108
2862.82342	0.05128
2860.76383	0.05194
2858.70425	0.05280
2856.64466	0.05386
2854.58508	0.05522
2852.52549	0.05677
2850.46590	0.05781
2848.40632	0.05734
2846.34673	0.05516
2844.28715	0.05235
2842.22756	0.05007
2840.16798	0.04836
2838.10839	0.04696
2836.04881	0.04601
2833.98922	0.04555
2831.92964	0.04524
2829.87005	0.04480
2827.81047	0.04431
2825.75088	0.04388
2823.69130	0.04356
2821.63171	0.04328
2819.57213	0.04296
2817.51254	0.04281
2815.45296	0.04279
2813.39337	0.04269
2811.33379	0.04258
2809.27420	0.04248
2807.21462	0.04225
2805.15503	0.04173
2803.09545	0.04115
2801.03586	0.04093
2798.97628	0.04091
2796.91669	0.04080
2794.85710	0.04071
2792.79752	0.04073
2790.73793	0.04073
2788.67835	0.04061
2786.61876	0.04038
2784.55918	0.04011
2782.49959	0.03980
2780.44001	0.03954
2778.38042	0.03952
2776.32084	0.03968
2774.26125	0.03968
2772.20167	0.03932
2770.14208	0.03896
2768.08250	0.03879
2766.02291	0.03851
2763.96333	0.03826
2761.90374	0.03838
2759.84416	0.03859
2757.78457	0.03853
2755.72499	0.03828
2753.66540	0.03809
2751.60582	0.03799
2749.54623	0.03786
2747.48665	0.03765
2745.42706	0.03750
2743.36747	0.03747
2741.30789	0.03747
2739.24830	0.03732
2737.18872	0.03712
2735.12913	0.03725
2733.06955	0.03755
2731.00996	0.03738
2728.95038	0.03684
2726.89079	0.03652
2724.83121	0.03655
2722.77162	0.03651
2720.71204	0.03621
2718.65245	0.03593
2716.59287	0.03609
2714.53328	0.03629
2712.47370	0.03605
2710.41411	0.03579
2708.35453	0.03567
2706.29494	0.03553
2704.23536	0.03531
2702.17577	0.03499
2700.11619	0.03487
2698.05660	0.03513
2695.99702	0.03536
2693.93743	0.03517
2691.87785	0.03475
2689.81826	0.03449
2687.75867	0.03439
2685.69909	0.03431
2683.63950	0.03423
2681.57992	0.03429
2679.52033	0.03444
2677.46075	0.03441
2675.40116	0.03432
2673.34158	0.03434
2671.28199	0.03429
2669.22241	0.03411
2667.16282	0.03396
2665.10324	0.03393
2663.04365	0.03388
2660.98407	0.03388
2658.92448	0.03403
2656.86490	0.03408
2654.80531	0.03396
2652.74573	0.03400
2650.68614	0.03419
2648.62656	0.03419
2646.56697	0.03389
2644.50739	0.03354
2642.44780	0.03339
2640.38822	0.03344
2638.32863	0.03357
2636.26904	0.03346
2634.20946	0.03306
2632.14987	0.03265
2630.09029	0.03259
2628.03070	0.03288
2625.97112	0.03311
2623.91153	0.03315
2621.85195	0.03305
2619.79236	0.03269
2617.73278	0.03231
2615.67319	0.03240
2613.61361	0.03247
2611.55402	0.03212
2609.49444	0.03191
2607.43485	0.03196
2605.37527	0.03185
2603.31568	0.03165
2601.25610	0.03151
2599.19651	0.03127
2597.13693	0.03099
2595.07734	0.03096
2593.01776	0.03137
2590.95817	0.03183
2588.89859	0.03173
2586.83900	0.03118
2584.77942	0.03061
2582.71983	0.03030
2580.66024	0.03017
2578.60066	0.02997
2576.54107	0.02995
2574.48149	0.03028
2572.42190	0.03074
2570.36232	0.03110
2568.30273	0.03107
2566.24315	0.03080
2564.18356	0.03062
2562.12398	0.03047
2560.06439	0.03028
2558.00481	0.02995
2555.94522	0.02948
2553.88564	0.02924
2551.82605	0.02944
2549.76647	0.02953
2547.70688	0.02927
2545.64730	0.02912
2543.58771	0.02918
2541.52813	0.02953
2539.46854	0.02965
2537.40896	0.02918
2535.34937	0.02874
2533.28979	0.02869
2531.23020	0.02877
2529.17062	0.02865
2527.11103	0.02844
2525.05144	0.02822
2522.99186	0.02807
2520.93227	0.02811
2518.87269	0.02813
2516.81310	0.02798
2514.75352	0.02790
2512.69393	0.02813
2510.63435	0.02840
2508.57476	0.02813
2506.51518	0.02756
2504.45559	0.02733
2502.39601	0.02756
2500.33642	0.02798
2498.27684	0.02808
2496.21725	0.02783
2494.15767	0.02743
2492.09808	0.02713
2490.03850	0.02728
2487.97891	0.02748
2485.91933	0.02749
2483.85974	0.02751
2481.80016	0.02734
2479.74057	0.02692
2477.68099	0.02668
2475.62140	0.02687
2473.56181	0.02724
2471.50223	0.02722
2469.44264	0.02662
2467.38306	0.02611
2465.32347	0.02627
2463.26389	0.02669
2461.20430	0.02677
2459.14472	0.02668
2457.08513	0.02682
2455.02555	0.02671
2452.96596	0.02633
2450.90638	0.02632
2448.84679	0.02672
2446.78721	0.02711
2444.72762	0.02703
2442.66804	0.02649
2440.60845	0.02614
2438.54887	0.02624
2436.48928	0.02645
2434.42970	0.02624
2432.37011	0.02547
2430.31053	0.02494
2428.25094	0.02518
2426.19136	0.02554
2424.13177	0.02582
2422.07219	0.02635
2420.01260	0.02646
2417.95301	0.02580
2415.89343	0.02533
2413.83384	0.02545
2411.77426	0.02563
2409.71467	0.02543
2407.65509	0.02472
2405.59550	0.02412
2403.53592	0.02411
2401.47633	0.02427
2399.41675	0.02438
2397.35716	0.02454
2395.29758	0.02468
2393.23799	0.02463
2391.17841	0.02451
2389.11882	0.02443
2387.05924	0.02444
2384.99965	0.02462
2382.94007	0.02486
2380.88048	0.02484
2378.82090	0.02467
2376.76131	0.02483
2374.70173	0.02521
2372.64214	0.02518
2370.58256	0.02483
2368.52297	0.02479
2366.46338	0.02521
2364.40380	0.02581
2362.34421	0.02607
2360.28463	0.02573
2358.22504	0.02518
2356.16546	0.02487
2354.10587	0.02507
2352.04629	0.02540
2349.98670	0.02518
2347.92712	0.02466
2345.86753	0.02449
2343.80795	0.02475
2341.74836	0.02522
2339.68878	0.02576
2337.62919	0.02582
2335.56961	0.02520
2333.51002	0.02465
2331.45044	0.02456
2329.39085	0.02482
2327.33127	0.02563
2325.27168	0.02667
2323.21210	0.02701
2321.15251	0.02656
2319.09293	0.02592
2317.03334	0.02523
2314.97376	0.02454
2312.91417	0.02424
2310.85458	0.02439
2308.79500	0.02443
2306.73541	0.02422
2304.67583	0.02400
2302.61624	0.02381
2300.55666	0.02377
2298.49707	0.02390
2296.43749	0.02389
2294.37790	0.02389
2292.31832	0.02410
2290.25873	0.02422
2288.19915	0.02418
2286.13956	0.02398
2284.07998	0.02378
2282.02039	0.02368
2279.96081	0.02335
2277.90122	0.02291
2275.84164	0.02282
2273.78205	0.02288
2271.72247	0.02257
2269.66288	0.02219
2267.60330	0.02221
2265.54371	0.02251
2263.48413	0.02288
2261.42454	0.02315
2259.36495	0.02303
2257.30537	0.02229
2255.24578	0.02131
2253.18620	0.02103
2251.12661	0.02154
2249.06703	0.02187
2247.00744	0.02168
2244.94786	0.02154
2242.88827	0.02141
2240.82869	0.02088
2238.76910	0.02024
2236.70952	0.02012
2234.64993	0.02066
2232.59035	0.02140
2230.53076	0.02171
2228.47118	0.02149
2226.41159	0.02073
2224.35201	0.01964
2222.29242	0.01884
2220.23284	0.01885
2218.17325	0.01951
2216.11367	0.02018
2214.05408	0.02048
2211.99450	0.02055
2209.93491	0.02079
2207.87533	0.02099
2205.81574	0.02096
2203.75615	0.02116
2201.69657	0.02134
2199.63698	0.02109
2197.57740	0.02044
2195.51781	0.01959
2193.45823	0.01869
2191.39864	0.01779
2189.33906	0.01761
2187.27947	0.01815
2185.21989	0.01852
2183.16030	0.01862
2181.10072	0.01864
2179.04113	0.01850
2176.98155	0.01820
2174.92196	0.01809
2172.86238	0.01844
2170.80279	0.01923
2168.74321	0.01975
2166.68362	0.01975
2164.62404	0.01975
2162.56445	0.01956
2160.50487	0.01818
2158.44528	0.01603
2156.38570	0.01498
2154.32611	0.01570
2152.26652	0.01745
2150.20694	0.01848
2148.14735	0.01826
2146.08777	0.01780
2144.02818	0.01744
2141.96860	0.01684
2139.90901	0.01625
2137.84943	0.01676
2135.78984	0.01804
2133.73026	0.01838
2131.67067	0.01801
2129.61109	0.01802
2127.55150	0.01827
2125.49192	0.01819
2123.43233	0.01779
2121.37275	0.01757
2119.31316	0.01762
2117.25358	0.01788
2115.19399	0.01844
2113.13441	0.01892
2111.07482	0.01920
2109.01524	0.01968
2106.95565	0.01988
2104.89607	0.01920
2102.83648	0.01840
2100.77690	0.01818
2098.71731	0.01814
2096.65772	0.01800
2094.59814	0.01813
2092.53855	0.01833
2090.47897	0.01828
2088.41938	0.01820
2086.35980	0.01839
2084.30021	0.01897
2082.24063	0.01976
2080.18104	0.02008
2078.12146	0.01964
2076.06187	0.01908
2074.00229	0.01895
2071.94270	0.01909
2069.88312	0.01925
2067.82353	0.01907
2065.76395	0.01813
2063.70436	0.01732
2061.64478	0.01749
2059.58519	0.01773
2057.52561	0.01766
2055.46602	0.01755
2053.40644	0.01753
2051.34685	0.01747
2049.28727	0.01678
2047.22768	0.01598
2045.16810	0.01581
2043.10851	0.01600
2041.04892	0.01662
2038.98934	0.01690
2036.92975	0.01593
2034.87017	0.01505
2032.81058	0.01548
2030.75100	0.01621
2028.69141	0.01594
2026.63183	0.01529
2024.57224	0.01518
2022.51266	0.01515
2020.45307	0.01531
2018.39349	0.01557
2016.33390	0.01544
2014.27432	0.01586
2012.21473	0.01720
2010.15515	0.01817
2008.09556	0.01759
2006.03598	0.01599
2003.97639	0.01530
2001.91681	0.01559
1999.85722	0.01574
1997.79764	0.01571
1995.73805	0.01547
1993.67847	0.01558
1991.61888	0.01634
1989.55929	0.01681
1987.49971	0.01702
1985.44012	0.01707
1983.38054	0.01689
1981.32095	0.01719
1979.26137	0.01727
1977.20178	0.01588
1975.14220	0.01412
1973.08261	0.01352
1971.02303	0.01353
1968.96344	0.01364
1966.90386	0.01414
1964.84427	0.01437
1962.78469	0.01388
1960.72510	0.01353
1958.66552	0.01381
1956.60593	0.01418
1954.54635	0.01420
1952.48676	0.01394
1950.42718	0.01388
1948.36759	0.01436
1946.30801	0.01456
1944.24842	0.01395
1942.18884	0.01356
1940.12925	0.01383
1938.06967	0.01422
1936.01008	0.01445
1933.95049	0.01449
1931.89091	0.01433
1929.83132	0.01420
1927.77174	0.01430
1925.71215	0.01452
1923.65257	0.01451
1921.59298	0.01425
1919.53340	0.01409
1917.47381	0.01408
1915.41423	0.01421
1913.35464	0.01453
1911.29506	0.01468
1909.23547	0.01450
1907.17589	0.01433
1905.11630	0.01405
1903.05672	0.01350
1900.99713	0.01325
1898.93755	0.01355
1896.87796	0.01396
1894.81838	0.01415
1892.75879	0.01415
1890.69921	0.01409
1888.63962	0.01389
1886.58004	0.01351
1884.52045	0.01314
1882.46086	0.01300
1880.40128	0.01290
1878.34169	0.01287
1876.28211	0.01309
1874.22252	0.01333
1872.16294	0.01338
1870.10335	0.01339
1868.04377	0.01344
1865.98418	0.01340
1863.92460	0.01328
1861.86501	0.01323
1859.80543	0.01325
1857.74584	0.01334
1855.68626	0.01350
1853.62667	0.01343
1851.56709	0.01310
1849.50750	0.01303
1847.44792	0.01337
1845.38833	0.01352
1843.32875	0.01312
1841.26916	0.01254
1839.20958	0.01216
1837.14999	0.01212
1835.09041	0.01230
1833.03082	0.01254
1830.97124	0.01280
1828.91165	0.01292
1826.85206	0.01286
1824.79248	0.01272
1822.73289	0.01256
1820.67331	0.01240
1818.61372	0.01220
1816.55414	0.01199
1814.49455	0.01188
1812.43497	0.01180
1810.37538	0.01170
1808.31580	0.01163
1806.25621	0.01165
1804.19663	0.01177
1802.13704	0.01190
1800.07746	0.01206
1798.01787	0.01220
1795.95829	0.01224
1793.89870	0.01224
1791.83912	0.01221
1789.77953	0.01204
1787.71995	0.01193
1785.66036	0.01208
1783.60078	0.01229
1781.54119	0.01233
1779.48161	0.01225
1777.42202	0.01221
1775.36243	0.01228
1773.30285	0.01238
1771.24326	0.01241
1769.18368	0.01240
1767.12409	0.01236
1765.06451	0.01233
1763.00492	0.01237
1760.94534	0.01249
1758.88575	0.01269
1756.82617	0.01297
1754.76658	0.01321
1752.70700	0.01346
1750.64741	0.01388
1748.58783	0.01432
1746.52824	0.01446
1744.46866	0.01441
1742.40907	0.01452
1740.34949	0.01479
1738.28990	0.01497
1736.23032	0.01515
1734.17073	0.01549
1732.11115	0.01570
1730.05156	0.01562
1727.99198	0.01555
1725.93239	0.01563
1723.87281	0.01581
1721.81322	0.01608
1719.75363	0.01664
1717.69405	0.01755
1715.63446	0.01845
1713.57488	0.01922
1711.51529	0.02026
1709.45571	0.02197
1707.39612	0.02443
1705.33654	0.02735
1703.27695	0.03028
1701.21737	0.03347
1699.15778	0.03684
1697.09820	0.03946
1695.03861	0.04124
1692.97903	0.04262
1690.91944	0.04411
1688.85986	0.04596
1686.80027	0.04812
1684.74069	0.05074
1682.68110	0.05343
1680.62152	0.05560
1678.56193	0.05763
1676.50235	0.06005
1674.44276	0.06284
1672.38318	0.06557
1670.32359	0.06839
1668.26401	0.07137
1666.20442	0.07398
1664.14483	0.07641
1662.08525	0.07912
1660.02566	0.08170
1657.96608	0.08385
1655.90649	0.08593
1653.84691	0.08849
1651.78732	0.09101
1649.72774	0.09260
1647.66815	0.09397
1645.60857	0.09560
1643.54898	0.09702
1641.48940	0.09816
1639.42981	0.09943
1637.37023	0.10127
1635.31064	0.10353
1633.25106	0.10532
1631.19147	0.10644
1629.13189	0.10710
1627.07230	0.10690
1625.01272	0.10538
1622.95313	0.10254
1620.89355	0.09889
1618.83396	0.09495
1616.77438	0.09079
1614.71479	0.08677
1612.65520	0.08316
1610.59562	0.07945
1608.53603	0.07533
1606.47645	0.07112
1604.41686	0.06724
1602.35728	0.06383
1600.29769	0.06089
1598.23811	0.05832
1596.17852	0.05603
1594.11894	0.05387
1592.05935	0.05181
1589.99977	0.04991
1587.94018	0.04834
1585.88060	0.04720
1583.82101	0.04650
1581.76143	0.04620
1579.70184	0.04620
1577.64226	0.04648
1575.58267	0.04698
1573.52309	0.04748
1571.46350	0.04808
1569.40392	0.04905
1567.34433	0.05029
1565.28475	0.05165
1563.22516	0.05316
1561.16558	0.05516
1559.10599	0.05792
1557.04640	0.06055
1554.98682	0.06247
1552.92723	0.06434
1550.86765	0.06642
1548.80806	0.06854
1546.74848	0.07057
1544.68889	0.07253
1542.62931	0.07461
1540.56972	0.07690
1538.51014	0.07891
1536.45055	0.08013
1534.39097	0.08096
1532.33138	0.08171
1530.27180	0.08236
1528.21221	0.08306
1526.15263	0.08390
1524.09304	0.08489
1522.03346	0.08614
1519.97387	0.08756
1517.91429	0.08876
1515.85470	0.08943
1513.79512	0.08935
1511.73553	0.08849
1509.67595	0.08696
1507.61636	0.08471
1505.55677	0.08189
1503.49719	0.07919
1501.43760	0.07673
1499.37802	0.07412
1497.31843	0.07115
1495.25885	0.06817
1493.19926	0.06557
1491.13968	0.06314
1489.08009	0.06055
1487.02051	0.05798
1484.96092	0.05578
1482.90134	0.05410
1480.84175	0.05286
1478.78217	0.05193
1476.72258	0.05122
1474.66300	0.05077
1472.60341	0.05052
1470.54383	0.05028
1468.48424	0.05013
1466.42466	0.05031
1464.36507	0.05081
1462.30549	0.05144
1460.24590	0.05227
1458.18632	0.05351
1456.12673	0.05491
1454.06715	0.05589
1452.00756	0.05658
1449.94797	0.05729
1447.88839	0.05791
1445.82880	0.05814
1443.76922	0.05786
1441.70963	0.05721
1439.65005	0.05638
1437.59046	0.05541
1435.53088	0.05427
1433.47129	0.05316
1431.41171	0.05232
1429.35212	0.05170
1427.29254	0.05123
1425.23295	0.05096
1423.17337	0.05098
1421.11378	0.05122
1419.05420	0.05157
1416.99461	0.05184
1414.93503	0.05197
1412.87544	0.05200
1410.81586	0.05201
1408.75627	0.05196
1406.69669	0.05183
1404.63710	0.05157
1402.57752	0.05124
1400.51793	0.05093
1398.45834	0.05067
1396.39876	0.05031
1394.33917	0.04988
1392.27959	0.04953
1390.22000	0.04928
1388.16042	0.04914
1386.10083	0.04911
1384.04125	0.04916
1381.98166	0.04923
1379.92208	0.04936
1377.86249	0.04958
1375.80291	0.04984
1373.74332	0.05004
1371.68374	0.05006
1369.62415	0.04985
1367.56457	0.04945
1365.50498	0.04892
1363.44540	0.04833
1361.38581	0.04769
1359.32623	0.04711
1357.26664	0.04669
1355.20706	0.04636
1353.14747	0.04606
1351.08789	0.04581
1349.02830	0.04571
1346.96872	0.04577
1344.90913	0.04593
1342.84954	0.04616
1340.78996	0.04639
1338.73037	0.04657
1336.67079	0.04664
1334.61120	0.04658
1332.55162	0.04634
1330.49203	0.04594
1328.43245	0.04548
1326.37286	0.04504
1324.31328	0.04464
1322.25369	0.04439
1320.19411	0.04434
1318.13452	0.04441
1316.07494	0.04446
1314.01535	0.04441
1311.95577	0.04419
1309.89618	0.04374
1307.83660	0.04319
1305.77701	0.04267
1303.71743	0.04223
1301.65784	0.04183
1299.59826	0.04141
1297.53867	0.04098
1295.47909	0.04062
1293.41950	0.04032
1291.35991	0.04007
1289.30033	0.03992
1287.24074	0.03986
1285.18116	0.03984
1283.12157	0.03991
1281.06199	0.04005
1279.00240	0.04020
1276.94282	0.04042
1274.88323	0.04072
1272.82365	0.04103
1270.76406	0.04140
1268.70448	0.04191
1266.64489	0.04246
1264.58531	0.04291
1262.52572	0.04329
1260.46614	0.04361
1258.40655	0.04386
1256.34697	0.04407
1254.28738	0.04429
1252.22780	0.04457
1250.16821	0.04501
1248.10863	0.04568
1246.04904	0.04642
1243.98946	0.04710
1241.92987	0.04770
1239.87029	0.04822
1237.81070	0.04870
1235.75111	0.04912
1233.69153	0.04940
1231.63194	0.04959
1229.57236	0.04968
1227.51277	0.04959
1225.45319	0.04940
1223.39360	0.04909
1221.33402	0.04859
1219.27443	0.04796
1217.21485	0.04720
1215.15526	0.04621
1213.09568	0.04506
1211.03609	0.04390
1208.97651	0.04284
1206.91692	0.04189
1204.85734	0.04101
1202.79775	0.04012
1200.73817	0.03917
1198.67858	0.03824
1196.61900	0.03739
1194.55941	0.03665
1192.49983	0.03606
1190.44024	0.03560
1188.38066	0.03525
1186.32107	0.03501
1184.26149	0.03489
1182.20190	0.03503
1180.14231	0.03550
1178.08273	0.03614
1176.02314	0.03684
1173.96356	0.03752
1171.90397	0.03812
1169.84439	0.03865
1167.78480	0.03911
1165.72522	0.03939
1163.66563	0.03935
1161.60605	0.03907
1159.54646	0.03863
1157.48688	0.03791
1155.42729	0.03694
1153.36771	0.03605
1151.30812	0.03536
1149.24854	0.03474
1147.18895	0.03416
1145.12937	0.03362
1143.06978	0.03305
1141.01020	0.03256
1138.95061	0.03229
1136.89103	0.03219
1134.83144	0.03212
1132.77186	0.03207
1130.71227	0.03214
1128.65268	0.03231
1126.59310	0.03255
1124.53351	0.03276
1122.47393	0.03287
1120.41434	0.03301
1118.35476	0.03330
1116.29517	0.03375
1114.23559	0.03425
1112.17600	0.03456
1110.11642	0.03462
1108.05683	0.03463
1105.99725	0.03476
1103.93766	0.03488
1101.87808	0.03479
1099.81849	0.03449
1097.75891	0.03411
1095.69932	0.03377
1093.63974	0.03347
1091.58015	0.03322
1089.52057	0.03304
1087.46098	0.03299
1085.40140	0.03310
1083.34181	0.03326
1081.28223	0.03342
1079.22264	0.03362
1077.16306	0.03384
1075.10347	0.03401
1073.04388	0.03420
1070.98430	0.03451
1068.92471	0.03494
1066.86513	0.03548
1064.80554	0.03612
1062.74596	0.03686
1060.68637	0.03770
1058.62679	0.03851
1056.56720	0.03909
1054.50762	0.03937
1052.44803	0.03942
1050.38845	0.03925
1048.32886	0.03897
1046.26928	0.03861
1044.20969	0.03825
1042.15011	0.03807
1040.09052	0.03811
1038.03094	0.03829
1035.97135	0.03852
1033.91177	0.03876
1031.85218	0.03898
1029.79260	0.03904
1027.73301	0.03893
1025.67343	0.03877
1023.61384	0.03850
1021.55425	0.03816
1019.49467	0.03783
1017.43508	0.03751
1015.37550	0.03718
1013.31591	0.03687
1011.25633	0.03653
1009.19674	0.03613
1007.13716	0.03568
1005.07757	0.03529
1003.01799	0.03504
1000.95840	0.03481
998.89882	0.03445
996.83923	0.03400
994.77965	0.03356
992.72006	0.03310
990.66048	0.03256
988.60089	0.03203
986.54131	0.03171
984.48172	0.03157
982.42214	0.03140
980.36255	0.03121
978.30297	0.03094
976.24338	0.03056
974.18380	0.03032
972.12421	0.03038
970.06463	0.03066
968.00504	0.03104
965.94545	0.03123
963.88587	0.03091
961.82628	0.03014
959.76670	0.02916
957.70711	0.02811
955.64753	0.02714
953.58794	0.02635
951.52836	0.02568
949.46877	0.02514
947.40919	0.02473
945.34960	0.02435
943.29002	0.02401
941.23043	0.02369
939.17085	0.02337
937.11126	0.02308
935.05168	0.02284
932.99209	0.02276
930.93251	0.02268
928.87292	0.02249
926.81334	0.02229
924.75375	0.02214
922.69417	0.02194
920.63458	0.02159
918.57500	0.02123
916.51541	0.02095
914.45582	0.02076
912.39624	0.02061
910.33665	0.02051
908.27707	0.02040
906.21748	0.02027
904.15790	0.02015
902.09831	0.02005
900.03873	0.02000
897.97914	0.01995
895.91956	0.01984
893.85997	0.01978
891.80039	0.01974
889.74080	0.01960
887.68122	0.01941
885.62163	0.01923
883.56205	0.01907
881.50246	0.01890
879.44288	0.01867
877.38329	0.01847
875.32371	0.01840
873.26412	0.01829
871.20454	0.01806
869.14495	0.01785
867.08537	0.01773
865.02578	0.01756
862.96620	0.01729
860.90661	0.01708
858.84702	0.01709
856.78744	0.01724
854.72785	0.01739
852.66827	0.01748
850.60868	0.01751
848.54910	0.01756
846.48951	0.01756
844.42993	0.01740
842.37034	0.01726
840.31076	0.01737
838.25117	0.01753
836.19159	0.01761
834.13200	0.01774
832.07242	0.01794
830.01283	0.01813
827.95325	0.01830
825.89366	0.01841
823.83408	0.01841
821.77449	0.01829
819.71491	0.01811
817.65532	0.01802
815.59574	0.01808
813.53615	0.01812
811.47657	0.01811
809.41698	0.01814
807.35740	0.01823
805.29781	0.01828
803.23822	0.01817
801.17864	0.01804
799.11905	0.01809
797.05947	0.01813
794.99988	0.01807
792.94030	0.01805
790.88071	0.01803
788.82113	0.01803
786.76154	0.01813
784.70196	0.01835
782.64237	0.01855
780.58279	0.01868
778.52320	0.01884
776.46362	0.01900
774.40403	0.01911
772.34445	0.01911
770.28486	0.01905
768.22528	0.01905
766.16569	0.01915
764.10611	0.01929
762.04652	0.01940
759.98694	0.01938
757.92735	0.01935
755.86777	0.01942
753.80818	0.01951
751.74859	0.01955
749.68901	0.01955
747.62942	0.01964
745.56984	0.01988
743.51025	0.02013
741.45067	0.02032
739.39108	0.02060
737.33150	0.02088
735.27191	0.02104
733.21233	0.02129
731.15274	0.02178
729.09316	0.02217
727.03357	0.02243
724.97399	0.02295
722.91440	0.02372
720.85482	0.02447
718.79523	0.02501
716.73565	0.02538
714.67606	0.02581
712.61648	0.02633
710.55689	0.02683
708.49731	0.02728
706.43772	0.02766
704.37814	0.02799
702.31855	0.02834
700.25897	0.02863
698.19938	0.02870
696.13979	0.02863
694.08021	0.02871
692.02062	0.02894
689.96104	0.02908
687.90145	0.02904
685.84187	0.02884
683.78228	0.02859
681.72270	0.02857
679.66311	0.02885
677.60353	0.02921
675.54394	0.02958
673.48436	0.02994
671.42477	0.03009
669.36519	0.03003
667.30560	0.02995
665.24602	0.02993
663.18643	0.02998
661.12685	0.03000
659.06726	0.02989
657.00768	0.02971
654.94809	0.02961
652.88851	0.02957
650.82892	0.02947
648.76934	0.02944
646.70975	0.02946
644.65016	0.02933
642.59058	0.02913
640.53099	0.02911
638.47141	0.02923
636.41182	0.02926
634.35224	0.02926
632.29265	0.02941
630.23307	0.02969
628.17348	0.02998
626.11390	0.03026
624.05431	0.03048
621.99473	0.03065
619.93514	0.03085
617.87556	0.03100
615.81597	0.03110
613.75639	0.03114
611.69680	0.03091
609.63722	0.03052
607.57763	0.03035
605.51805	0.03038
603.45846	0.03033
601.39888	0.03015
599.33929	0.02989
597.27971	0.02965
595.22012	0.02950
593.16054	0.02942
591.10095	0.02938
589.04136	0.02937
586.98178	0.02930
584.92219	0.02914
582.86261	0.02903
580.80302	0.02914
578.74344	0.02920
576.68385	0.02908
574.62427	0.02910
572.56468	0.02925
570.50510	0.02937
568.44551	0.02955
566.38593	0.02985
564.32634	0.03012
562.26676	0.03026
560.20717	0.03028
558.14759	0.03028
556.08800	0.03031
554.02842	0.03037
551.96883	0.03038
549.90925	0.03030
547.84966	0.03015
545.79008	0.02988
543.73049	0.02959
541.67091	0.02937
539.61132	0.02920
537.55173	0.02910
535.49215	0.02902
533.43256	0.02890
531.37298	0.02878
529.31339	0.02860
527.25381	0.02839
525.19422	0.02828
523.13464	0.02830
521.07505	0.02832
519.01547	0.02812
516.95588	0.02763
514.89630	0.02701
512.83671	0.02646
510.77713	0.02613
508.71754	0.02604
506.65796	0.02613
504.59837	0.02615
502.53879	0.02586
500.47920	0.02543
498.41962	0.02522
496.36003	0.02512
494.30045	0.02490
492.24086	0.02480
490.18128	0.02493
488.12169	0.02495
486.06211	0.02463
484.00252	0.02417
481.94293	0.02384
479.88335	0.02376
477.82376	0.02380
475.76418	0.02381
473.70459	0.02383
471.64501	0.02371
469.58542	0.02329
467.52584	0.02287
465.46625	0.02272
463.40667	0.02265
461.34708	0.02245
459.28750	0.02209
457.22791	0.02175
455.16833	0.02169
453.10874	0.02188
451.04916	0.02220
448.98957	0.02250
446.92999	0.02256
444.87040	0.02232
442.81082	0.02211
440.75123	0.02220
438.69165	0.02241
436.63206	0.02236
434.57248	0.02203
432.51289	0.02150
430.45330	0.02081
428.39372	0.02040
426.33413	0.02055
424.27455	0.02082
422.21496	0.02076
420.15538	0.02052
418.09579	0.02038
416.03621	0.02013
413.97662	0.01953
411.91704	0.01887
409.85745	0.01860
407.79787	0.01852
405.73828	0.01824
403.67870	0.01804
401.61911	0.01818
399.55953	0.01841
