3997.65486	0.10412
3995.59527	0.10366
3993.53569	0.10333
3991.47610	0.10292
3989.41652	0.10256
3987.35693	0.10295
3985.29735	0.10387
3983.23776	0.10419
3981.17817	0.10338
3979.11859	0.10232
3977.05900	0.10209
3974.99942	0.10255
3972.93983	0.10280
3970.88025	0.10249
3968.82066	0.10200
3966.76108	0.10124
3964.70149	0.10041
3962.64191	0.10047
3960.58232	0.10131
3958.52274	0.10180
3956.46315	0.10181
3954.40357	0.10192
3952.34398	0.10196
3950.28440	0.10160
3948.22481	0.10136
3946.16523	0.10159
3944.10564	0.10164
3942.04606	0.10115
3939.98647	0.10060
3937.92689	0.10041
3935.86730	0.10052
3933.80772	0.10065
3931.74813	0.10054
3929.68855	0.10012
3927.62896	0.09979
3925.56937	0.09988
3923.50979	0.10012
3921.45020	0.10007
3919.39062	0.09960
3917.33103	0.09884
3915.27145	0.09836
3913.21186	0.09855
3911.15228	0.09916
3909.09269	0.09993
3907.03311	0.10083
3904.97352	0.10162
3902.91394	0.10187
3900.85435	0.10146
3898.79477	0.10067
3896.73518	0.09980
3894.67560	0.09904
3892.61601	0.09859
3890.55643	0.09828
3888.49684	0.09772
3886.43726	0.09737
3884.37767	0.09784
3882.31809	0.09861
3880.25850	0.09875
3878.19892	0.09810
3876.13933	0.09735
3874.07974	0.09728
3872.02016	0.09785
3869.96057	0.09833
3867.90099	0.09820
3865.84140	0.09780
3863.78182	0.09778
3861.72223	0.09787
3859.66265	0.09725
3857.60306	0.09625
3855.54348	0.09574
3853.48389	0.09574
3851.42431	0.09596
3849.36472	0.09637
3847.30514	0.09657
3845.24555	0.09616
3843.18597	0.09548
3841.12638	0.09501
3839.06680	0.09494
3837.00721	0.09533
3834.94763	0.09578
3832.88804	0.09593
3830.82846	0.09592
3828.76887	0.09585
3826.70929	0.09551
3824.64970	0.09481
3822.59012	0.09432
3820.53053	0.09452
3818.47094	0.09474
3816.41136	0.09444
3814.35177	0.09415
3812.29219	0.09408
3810.23260	0.09380
3808.17302	0.09349
3806.11343	0.09368
3804.05385	0.09392
3801.99426	0.09343
3799.93468	0.09256
3797.87509	0.09216
3795.81551	0.09246
3793.75592	0.09298
3791.69634	0.09308
3789.63675	0.09250
3787.57717	0.09169
3785.51758	0.09152
3783.45800	0.09188
3781.39841	0.09201
3779.33883	0.09197
3777.27924	0.09190
3775.21966	0.09163
3773.16007	0.09123
3771.10049	0.09095
3769.04090	0.09093
3766.98132	0.09092
3764.92173	0.09090
3762.86214	0.09095
3760.80256	0.09084
3758.74297	0.09057
3756.68339	0.09002
3754.62380	0.08920
3752.56422	0.08875
3750.50463	0.08862
3748.44505	0.08813
3746.38546	0.08766
3744.32588	0.08753
3742.26629	0.08752
3740.20671	0.08766
3738.14712	0.08776
3736.08754	0.08743
3734.02795	0.08734
3731.96837	0.08814
3729.90878	0.08855
3727.84920	0.08773
3725.78961	0.08648
3723.73003	0.08598
3721.67044	0.08608
3719.61086	0.08601
3717.55127	0.08551
3715.49169	0.08458
3713.43210	0.08395
3711.37251	0.08451
3709.31293	0.08529
3707.25334	0.08487
3705.19376	0.08405
3703.13417	0.08384
3701.07459	0.08399
3699.01500	0.08401
3696.95542	0.08417
3694.89583	0.08457
3692.83625	0.08483
3690.77666	0.08495
3688.71708	0.08498
3686.65749	0.08485
3684.59791	0.08493
3682.53832	0.08507
3680.47874	0.08483
3678.41915	0.08437
3676.35957	0.08409
3674.29998	0.08396
3672.24040	0.08392
3670.18081	0.08410
3668.12123	0.08427
3666.06164	0.08428
3664.00206	0.08434
3661.94247	0.08446
3659.88289	0.08441
3657.82330	0.08423
3655.76371	0.08415
3653.70413	0.08382
3651.64454	0.08334
3649.58496	0.08389
3647.52537	0.08528
3645.46579	0.08581
3643.40620	0.08555
3641.34662	0.08523
3639.28703	0.08478
3637.22745	0.08381
3635.16786	0.08280
3633.10828	0.08290
3631.04869	0.08452
3628.98911	0.08644
3626.92952	0.08697
3624.86994	0.08631
3622.81035	0.08542
3620.75077	0.08474
3618.69118	0.08494
3616.63160	0.08578
3614.57201	0.08643
3612.51243	0.08685
3610.45284	0.08686
3608.39326	0.08649
3606.33367	0.08632
3604.27408	0.08659
3602.21450	0.08704
3600.15491	0.08725
3598.09533	0.08740
3596.03574	0.08811
3593.97616	0.08901
3591.91657	0.08936
3589.85699	0.08943
3587.79740	0.08982
3585.73782	0.09043
3583.67823	0.09080
3581.61865	0.09095
3579.55906	0.09116
3577.49948	0.09128
3575.43989	0.09108
3573.38031	0.09086
3571.32072	0.09100
3569.26114	0.09154
3567.20155	0.09220
3565.14197	0.09266
3563.08238	0.09292
3561.02280	0.09332
3558.96321	0.09396
3556.90363	0.09457
3554.84404	0.09497
3552.78446	0.09526
3550.72487	0.09563
3548.66528	0.09598
3546.60570	0.09651
3544.54611	0.09721
3542.48653	0.09760
3540.42694	0.09763
3538.36736	0.09765
3536.30777	0.09793
3534.24819	0.09842
3532.18860	0.09875
3530.12902	0.09897
3528.06943	0.09939
3526.00985	0.09978
3523.95026	0.09995
3521.89068	0.10034
3519.83109	0.10125
3517.77151	0.10222
3515.71192	0.10283
3513.65234	0.10316
3511.59275	0.10332
3509.53317	0.10330
3507.47358	0.10354
3505.41400	0.10416
3503.35441	0.10438
3501.29483	0.10398
3499.23524	0.10401
3497.17565	0.10505
3495.11607	0.10646
3493.05648	0.10739
3490.99690	0.10762
3488.93731	0.10748
3486.87773	0.10766
3484.81814	0.10853
3482.75856	0.10949
3480.69897	0.10994
3478.63939	0.10996
3476.57980	0.11005
3474.52022	0.11056
3472.46063	0.11133
3470.40105	0.11190
3468.34146	0.11211
3466.28188	0.11208
3464.22229	0.11210
3462.16271	0.11249
3460.10312	0.11325
3458.04354	0.11401
3455.98395	0.11459
3453.92437	0.11516
3451.86478	0.11563
3449.80520	0.11612
3447.74561	0.11704
3445.68603	0.11785
3443.62644	0.11801
3441.56685	0.11807
3439.50727	0.11843
3437.44768	0.11889
3435.38810	0.11937
3433.32851	0.11989
3431.26893	0.12043
3429.20934	0.12079
3427.14976	0.12076
3425.09017	0.12093
3423.03059	0.12178
3420.97100	0.12266
3418.91142	0.12306
3416.85183	0.12329
3414.79225	0.12375
3412.73266	0.12443
3410.67308	0.12471
3408.61349	0.12443
3406.55391	0.12453
3404.49432	0.12531
3402.43474	0.12622
3400.37515	0.12678
3398.31557	0.12686
3396.25598	0.12692
3394.19640	0.12742
3392.13681	0.12804
3390.07723	0.12826
3388.01764	0.12822
3385.95805	0.12851
3383.89847	0.12938
3381.83888	0.13034
3379.77930	0.13090
3377.71971	0.13135
3375.66013	0.13204
3373.60054	0.13284
3371.54096	0.13357
3369.48137	0.13418
3367.42179	0.13462
3365.36220	0.13481
3363.30262	0.13498
3361.24303	0.13565
3359.18345	0.13681
3357.12386	0.13803
3355.06428	0.13911
3353.00469	0.14011
3350.94511	0.14087
3348.88552	0.14130
3346.82594	0.14207
3344.76635	0.14347
3342.70677	0.14493
3340.64718	0.14614
3338.58760	0.14691
3336.52801	0.14744
3334.46842	0.14842
3332.40884	0.14995
3330.34925	0.15178
3328.28967	0.15388
3326.23008	0.15588
3324.17050	0.15732
3322.11091	0.15859
3320.05133	0.16010
3317.99174	0.16167
3315.93216	0.16332
3313.87257	0.16550
3311.81299	0.16811
3309.75340	0.17048
3307.69382	0.17247
3305.63423	0.17453
3303.57465	0.17688
3301.51506	0.17922
3299.45548	0.18140
3297.39589	0.18349
3295.33631	0.18571
3293.27672	0.18827
3291.21714	0.19086
3289.15755	0.19312
3287.09797	0.19532
3285.03838	0.19772
3282.97880	0.19995
3280.91921	0.20181
3278.85962	0.20362
3276.80004	0.20529
3274.74045	0.20647
3272.68087	0.20728
3270.62128	0.20804
3268.56170	0.20849
3266.50211	0.20814
3264.44253	0.20731
3262.38294	0.20626
3260.32336	0.20507
3258.26377	0.20399
3256.20419	0.20270
3254.14460	0.20142
3252.08502	0.20075
3250.02543	0.20019
3247.96585	0.19885
3245.90626	0.19711
3243.84668	0.19593
3241.78709	0.19477
3239.72751	0.19290
3237.66792	0.19099
3235.60834	0.18984
3233.54875	0.18916
3231.48917	0.18811
3229.42958	0.18649
3227.36999	0.18479
3225.31041	0.18356
3223.25082	0.18282
3221.19124	0.18177
3219.13165	0.18035
3217.07207	0.17953
3215.01248	0.17907
3212.95290	0.17798
3210.89331	0.17656
3208.83373	0.17561
3206.77414	0.17500
3204.71456	0.17433
3202.65497	0.17366
3200.59539	0.17292
3198.53580	0.17202
3196.47622	0.17122
3194.41663	0.17061
3192.35705	0.16990
3190.29746	0.16914
3188.23788	0.16845
3186.17829	0.16738
3184.11871	0.16597
3182.05912	0.16483
3179.99954	0.16367
3177.93995	0.16229
3175.88037	0.16113
3173.82078	0.16026
3171.76119	0.15951
3169.70161	0.15879
3167.64202	0.15777
3165.58244	0.15632
3163.52285	0.15480
3161.46327	0.15371
3159.40368	0.15308
3157.34410	0.15244
3155.28451	0.15171
3153.22493	0.15092
3151.16534	0.14979
3149.10576	0.14830
3147.04617	0.14691
3144.98659	0.14596
3142.92700	0.14521
3140.86742	0.14433
3138.80783	0.14361
3136.74825	0.14307
3134.68866	0.14229
3132.62908	0.14138
3130.56949	0.14053
3128.50991	0.13975
3126.45032	0.13908
3124.39074	0.13860
3122.33115	0.13825
3120.27156	0.13791
3118.21198	0.13744
3116.15239	0.13685
3114.09281	0.13624
3112.03322	0.13584
3109.97364	0.13559
3107.91405	0.13514
3105.85447	0.13462
3103.79488	0.13453
3101.73530	0.13470
3099.67571	0.13455
3097.61613	0.13419
3095.55654	0.13409
3093.49696	0.13431
3091.43737	0.13448
3089.37779	0.13448
3087.31820	0.13455
3085.25862	0.13468
3083.19903	0.13474
3081.13945	0.13490
3079.07986	0.13506
3077.02028	0.13502
3074.96069	0.13493
3072.90111	0.13504
3070.84152	0.13515
3068.78194	0.13494
3066.72235	0.13472
3064.66276	0.13470
3062.60318	0.13458
3060.54359	0.13437
3058.48401	0.13417
3056.42442	0.13368
3054.36484	0.13288
3052.30525	0.13222
3050.24567	0.13179
3048.18608	0.13144
3046.12650	0.13123
3044.06691	0.13086
3042.00733	0.13006
3039.94774	0.12933
3037.88816	0.12894
3035.82857	0.12851
3033.76899	0.12778
3031.70940	0.12692
3029.64982	0.12604
3027.59023	0.12520
3025.53065	0.12458
3023.47106	0.12399
3021.41148	0.12328
3019.35189	0.12261
3017.29231	0.12215
3015.23272	0.12169
3013.17313	0.12085
3011.11355	0.11998
3009.05396	0.11951
3006.99438	0.11919
3004.93479	0.11880
3002.87521	0.11843
3000.81562	0.11831
2998.75604	0.11836
2996.69645	0.11818
2994.63687	0.11794
2992.57728	0.11808
2990.51770	0.11832
2988.45811	0.11853
2986.39853	0.11911
2984.33894	0.12010
2982.27936	0.12118
2980.21977	0.12206
2978.16019	0.12278
2976.10060	0.12358
2974.04102	0.12436
2971.98143	0.12491
2969.92185	0.12559
2967.86226	0.12649
2965.80268	0.12704
2963.74309	0.12725
2961.68351	0.12743
2959.62392	0.12743
2957.56433	0.12719
2955.50475	0.12679
2953.44516	0.12655
2951.38558	0.12624
2949.32599	0.12547
2947.26641	0.12476
2945.20682	0.12473
2943.14724	0.12543
2941.08765	0.12642
2939.02807	0.12734
2936.96848	0.12812
2934.90890	0.12859
2932.84931	0.12879
2930.78973	0.12890
2928.73014	0.12857
2926.67056	0.12770
2924.61097	0.12677
2922.55139	0.12613
2920.49180	0.12568
2918.43222	0.12536
2916.37263	0.12490
2914.31305	0.12379
2912.25346	0.12241
2910.19388	0.12137
2908.13429	0.12068
2906.07471	0.12022
2904.01512	0.11974
2901.95553	0.11904
2899.89595	0.11817
2897.83636	0.11755
2895.77678	0.11746
2893.71719	0.11757
2891.65761	0.11749
2889.59802	0.11723
2887.53844	0.11708
2885.47885	0.11709
2883.41927	0.11720
2881.35968	0.11761
2879.30010	0.11830
2877.24051	0.11896
2875.18093	0.11960
2873.12134	0.11987
2871.06176	0.11932
2869.00217	0.11826
2866.94259	0.11736
2864.88300	0.11660
2862.82342	0.11576
2860.76383	0.11502
2858.70425	0.11445
2856.64466	0.11396
2854.58508	0.11330
2852.52549	0.11249
2850.46590	0.11185
2848.40632	0.11128
2846.34673	0.11068
2844.28715	0.11022
2842.22756	0.10979
2840.16798	0.10929
2838.10839	0.10875
2836.04881	0.10829
2833.98922	0.10803
2831.92964	0.10757
2829.87005	0.10695
2827.81047	0.10657
2825.75088	0.10627
2823.69130	0.10588
2821.63171	0.10543
2819.57213	0.10490
2817.51254	0.10447
2815.45296	0.10445
2813.39337	0.10463
2811.33379	0.10459
2809.27420	0.10440
2807.21462	0.10417
2805.15503	0.10406
2803.09545	0.10408
2801.03586	0.10385
2798.97628	0.10336
2796.91669	0.10293
2794.85710	0.10274
2792.79752	0.10257
2790.73793	0.10226
2788.67835	0.10204
2786.61876	0.10190
2784.55918	0.10163
2782.49959	0.10129
2780.44001	0.10117
2778.38042	0.10123
2776.32084	0.10119
2774.26125	0.10084
2772.20167	0.10027
2770.14208	0.09994
2768.08250	0.09994
2766.02291	0.09988
2763.96333	0.09957
2761.90374	0.09915
2759.84416	0.09886
2757.78457	0.09869
2755.72499	0.09847
2753.66540	0.09825
2751.60582	0.09792
2749.54623	0.09754
2747.48665	0.09738
2745.42706	0.09733
2743.36747	0.09729
2741.30789	0.09712
2739.24830	0.09671
2737.18872	0.09629
2735.12913	0.09615
2733.06955	0.09627
2731.00996	0.09628
2728.95038	0.09608
2726.89079	0.09576
2724.83121	0.09535
2722.77162	0.09491
2720.71204	0.09447
2718.65245	0.09417
2716.59287	0.09400
2714.53328	0.09390
2712.47370	0.09379
2710.41411	0.09360
2708.35453	0.09335
2706.29494	0.09304
2704.23536	0.09278
2702.17577	0.09266
2700.11619	0.09261
2698.05660	0.09254
2695.99702	0.09235
2693.93743	0.09216
2691.87785	0.09206
2689.81826	0.09181
2687.75867	0.09148
2685.69909	0.09132
2683.63950	0.09115
2681.57992	0.09080
2679.52033	0.09054
2677.46075	0.09036
2675.40116	0.09005
2673.34158	0.08986
2671.28199	0.08999
2669.22241	0.09010
2667.16282	0.08994
2665.10324	0.08980
2663.04365	0.08990
2660.98407	0.08999
2658.92448	0.08974
2656.86490	0.08923
2654.80531	0.08887
2652.74573	0.08867
2650.68614	0.08852
2648.62656	0.08840
2646.56697	0.08817
2644.50739	0.08792
2642.44780	0.08772
2640.38822	0.08753
2638.32863	0.08729
2636.26904	0.08698
2634.20946	0.08660
2632.14987	0.08630
2630.09029	0.08609
2628.03070	0.08574
2625.97112	0.08536
2623.91153	0.08527
2621.85195	0.08530
2619.79236	0.08512
2617.73278	0.08467
2615.67319	0.08411
2613.61361	0.08370
2611.55402	0.08343
2609.49444	0.08312
2607.43485	0.08296
2605.37527	0.08291
2603.31568	0.08267
2601.25610	0.08239
2599.19651	0.08216
2597.13693	0.08195
2595.07734	0.08190
2593.01776	0.08181
2590.95817	0.08134
2588.89859	0.08065
2586.83900	0.08013
2584.77942	0.07988
2582.71983	0.07974
2580.66024	0.07959
2578.60066	0.07947
2576.54107	0.07950
2574.48149	0.07962
2572.42190	0.07950
2570.36232	0.07914
2568.30273	0.07869
2566.24315	0.07846
2564.18356	0.07861
2562.12398	0.07879
2560.06439	0.07873
2558.00481	0.07860
2555.94522	0.07843
2553.88564	0.07793
2551.82605	0.07736
2549.76647	0.07725
2547.70688	0.07739
2545.64730	0.07714
2543.58771	0.07650
2541.52813	0.07614
2539.46854	0.07628
2537.40896	0.07628
2535.34937	0.07583
2533.28979	0.07571
2531.23020	0.07583
2529.17062	0.07536
2527.11103	0.07491
2525.05144	0.07525
2522.99186	0.07586
2520.93227	0.07587
2518.87269	0.07525
2516.81310	0.07459
2514.75352	0.07420
2512.69393	0.07410
2510.63435	0.07409
2508.57476	0.07399
2506.51518	0.07394
2504.45559	0.07394
2502.39601	0.07394
2500.33642	0.07420
2498.27684	0.07441
2496.21725	0.07406
2494.15767	0.07344
2492.09808	0.07315
2490.03850	0.07328
2487.97891	0.07348
2485.91933	0.07331
2483.85974	0.07281
2481.80016	0.07251
2479.74057	0.07255
2477.68099	0.07266
2475.62140	0.07252
2473.56181	0.07211
2471.50223	0.07182
2469.44264	0.07173
2467.38306	0.07190
2465.32347	0.07202
2463.26389	0.07161
2461.20430	0.07125
2459.14472	0.07152
2457.08513	0.07194
2455.02555	0.07195
2452.96596	0.07159
2450.90638	0.07122
2448.84679	0.07130
2446.78721	0.07148
2444.72762	0.07126
2442.66804	0.07093
2440.60845	0.07066
2438.54887	0.07046
2436.48928	0.07040
2434.42970	0.07039
2432.37011	0.07046
2430.31053	0.07049
2428.25094	0.07031
2426.19136	0.06994
2424.13177	0.06955
2422.07219	0.06928
2420.01260	0.06915
2417.95301	0.06914
2415.89343	0.06918
2413.83384	0.06902
2411.77426	0.06891
2409.71467	0.06927
2407.65509	0.06962
2405.59550	0.06944
2403.53592	0.06889
2401.47633	0.06834
2399.41675	0.06787
2397.35716	0.06768
2395.29758	0.06781
2393.23799	0.06814
2391.17841	0.06833
2389.11882	0.06829
2387.05924	0.06819
2384.99965	0.06808
2382.94007	0.06796
2380.88048	0.06795
2378.82090	0.06790
2376.76131	0.06750
2374.70173	0.06685
2372.64214	0.06658
2370.58256	0.06702
2368.52297	0.06742
2366.46338	0.06711
2364.40380	0.06677
2362.34421	0.06696
2360.28463	0.06729
2358.22504	0.06732
2356.16546	0.06712
2354.10587	0.06715
2352.04629	0.06741
2349.98670	0.06745
2347.92712	0.06722
2345.86753	0.06708
2343.80795	0.06698
2341.74836	0.06652
2339.68878	0.06607
2337.62919	0.06604
2335.56961	0.06612
2333.51002	0.06621
2331.45044	0.06634
2329.39085	0.06655
2327.33127	0.06696
2325.27168	0.06733
2323.21210	0.06728
2321.15251	0.06704
2319.09293	0.06677
2317.03334	0.06641
2314.97376	0.06614
2312.91417	0.06598
2310.85458	0.06565
2308.79500	0.06519
2306.73541	0.06454
2304.67583	0.06383
2302.61624	0.06368
2300.55666	0.06393
2298.49707	0.06374
2296.43749	0.06295
2294.37790	0.06253
2292.31832	0.06319
2290.25873	0.06381
2288.19915	0.06323
2286.13956	0.06208
2284.07998	0.06133
2282.02039	0.06108
2279.96081	0.06095
2277.90122	0.06051
2275.84164	0.05979
2273.78205	0.05923
2271.72247	0.05910
2269.66288	0.05928
2267.60330	0.05928
2265.54371	0.05884
2263.48413	0.05837
2261.42454	0.05821
2259.36495	0.05797
2257.30537	0.05742
2255.24578	0.05684
2253.18620	0.05629
2251.12661	0.05582
2249.06703	0.05575
2247.00744	0.05570
2244.94786	0.05501
2242.88827	0.05461
2240.82869	0.05527
2238.76910	0.05603
2236.70952	0.05598
2234.64993	0.05555
2232.59035	0.05498
2230.53076	0.05427
2228.47118	0.05389
2226.41159	0.05361
2224.35201	0.05314
2222.29242	0.05292
2220.23284	0.05277
2218.17325	0.05234
2216.11367	0.05201
2214.05408	0.05172
2211.99450	0.05105
2209.93491	0.05077
2207.87533	0.05119
2205.81574	0.05163
2203.75615	0.05157
2201.69657	0.05052
2199.63698	0.04940
2197.57740	0.04960
2195.51781	0.05033
2193.45823	0.05042
2191.39864	0.05036
2189.33906	0.05059
2187.27947	0.05026
2185.21989	0.04871
2183.16030	0.04675
2181.10072	0.04601
2179.04113	0.04647
2176.98155	0.04677
2174.92196	0.04633
2172.86238	0.04626
2170.80279	0.04765
2168.74321	0.04901
2166.68362	0.04825
2164.62404	0.04587
2162.56445	0.04391
2160.50487	0.04237
2158.44528	0.04087
2156.38570	0.04078
2154.32611	0.04226
2152.26652	0.04383
2150.20694	0.04471
2148.14735	0.04496
2146.08777	0.04504
2144.02818	0.04556
2141.96860	0.04618
2139.90901	0.04630
2137.84943	0.04606
2135.78984	0.04624
2133.73026	0.04721
2131.67067	0.04766
2129.61109	0.04732
2127.55150	0.04762
2125.49192	0.04849
2123.43233	0.04904
2121.37275	0.04933
2119.31316	0.04947
2117.25358	0.04982
2115.19399	0.05019
2113.13441	0.04973
2111.07482	0.04896
2109.01524	0.04871
2106.95565	0.04886
2104.89607	0.04924
2102.83648	0.04941
2100.77690	0.04897
2098.71731	0.04837
2096.65772	0.04759
2094.59814	0.04694
2092.53855	0.04689
2090.47897	0.04718
2088.41938	0.04756
2086.35980	0.04735
2084.30021	0.04662
2082.24063	0.04680
2080.18104	0.04784
2078.12146	0.04830
2076.06187	0.04773
2074.00229	0.04685
2071.94270	0.04651
2069.88312	0.04665
2067.82353	0.04680
2065.76395	0.04663
2063.70436	0.04585
2061.64478	0.04507
2059.58519	0.04504
2057.52561	0.04498
2055.46602	0.04463
2053.40644	0.04513
2051.34685	0.04587
2049.28727	0.04490
2047.22768	0.04265
2045.16810	0.04118
2043.10851	0.04021
2041.04892	0.03882
2038.98934	0.03756
2036.92975	0.03678
2034.87017	0.03645
2032.81058	0.03655
2030.75100	0.03705
2028.69141	0.03817
2026.63183	0.03928
2024.57224	0.03915
2022.51266	0.03788
2020.45307	0.03635
2018.39349	0.03531
2016.33390	0.03521
2014.27432	0.03556
2012.21473	0.03656
2010.15515	0.03800
2008.09556	0.03845
2006.03598	0.03865
2003.97639	0.03965
2001.91681	0.04010
1999.85722	0.03928
1997.79764	0.03838
1995.73805	0.03804
1993.67847	0.03793
1991.61888	0.03816
1989.55929	0.03883
1987.49971	0.03887
1985.44012	0.03789
1983.38054	0.03733
1981.32095	0.03716
1979.26137	0.03585
1977.20178	0.03420
1975.14220	0.03410
1973.08261	0.03488
1971.02303	0.03510
1968.96344	0.03513
1966.90386	0.03506
1964.84427	0.03482
1962.78469	0.03506
1960.72510	0.03565
1958.66552	0.03650
1956.60593	0.03744
1954.54635	0.03748
1952.48676	0.03699
1950.42718	0.03701
1948.36759	0.03732
1946.30801	0.03762
1944.24842	0.03803
1942.18884	0.03820
1940.12925	0.03781
1938.06967	0.03749
1936.01008	0.03782
1933.95049	0.03821
1931.89091	0.03806
1929.83132	0.03771
1927.77174	0.03753
1925.71215	0.03761
1923.65257	0.03783
1921.59298	0.03783
1919.53340	0.03763
1917.47381	0.03752
1915.41423	0.03763
1913.35464	0.03804
1911.29506	0.03856
1909.23547	0.03870
1907.17589	0.03832
1905.11630	0.03781
1903.05672	0.03765
1900.99713	0.03761
1898.93755	0.03728
1896.87796	0.03687
1894.81838	0.03674
1892.75879	0.03663
1890.69921	0.03637
1888.63962	0.03648
1886.58004	0.03697
1884.52045	0.03720
1882.46086	0.03710
1880.40128	0.03700
1878.34169	0.03684
1876.28211	0.03651
1874.22252	0.03614
1872.16294	0.03586
1870.10335	0.03574
1868.04377	0.03569
1865.98418	0.03568
1863.92460	0.03578
1861.86501	0.03583
1859.80543	0.03564
1857.74584	0.03532
1855.68626	0.03500
1853.62667	0.03479
1851.56709	0.03473
1849.50750	0.03462
1847.44792	0.03441
1845.38833	0.03425
1843.32875	0.03408
1841.26916	0.03379
1839.20958	0.03343
1837.14999	0.03325
1835.09041	0.03330
1833.03082	0.03333
1830.97124	0.03322
1828.91165	0.03299
1826.85206	0.03273
1824.79248	0.03260
1822.73289	0.03270
1820.67331	0.03290
1818.61372	0.03292
1816.55414	0.03266
1814.49455	0.03225
1812.43497	0.03186
1810.37538	0.03155
1808.31580	0.03137
1806.25621	0.03130
1804.19663	0.03127
1802.13704	0.03125
1800.07746	0.03120
1798.01787	0.03099
1795.95829	0.03063
1793.89870	0.03028
1791.83912	0.03011
1789.77953	0.03007
1787.71995	0.02993
1785.66036	0.02959
1783.60078	0.02915
1781.54119	0.02872
1779.48161	0.02835
1777.42202	0.02813
1775.36243	0.02805
1773.30285	0.02806
1771.24326	0.02803
1769.18368	0.02793
1767.12409	0.02775
1765.06451	0.02747
1763.00492	0.02711
1760.94534	0.02679
1758.88575	0.02651
1756.82617	0.02621
1754.76658	0.02591
1752.70700	0.02571
1750.64741	0.02566
1748.58783	0.02569
1746.52824	0.02562
1744.46866	0.02534
1742.40907	0.02493
1740.34949	0.02455
1738.28990	0.02429
1736.23032	0.02413
1734.17073	0.02396
1732.11115	0.02371
1730.05156	0.02348
1727.99198	0.02331
1725.93239	0.02311
1723.87281	0.02297
1721.81322	0.02301
1719.75363	0.02324
1717.69405	0.02346
1715.63446	0.02364
1713.57488	0.02399
1711.51529	0.02460
1709.45571	0.02563
1707.39612	0.02744
1705.33654	0.03031
1703.27695	0.03417
1701.21737	0.04018
1699.15778	0.04838
1697.09820	0.05500
1695.03861	0.05878
1692.97903	0.06097
1690.91944	0.06289
1688.85986	0.06526
1686.80027	0.06836
1684.74069	0.07314
1682.68110	0.07902
1680.62152	0.08364
1678.56193	0.08742
1676.50235	0.09173
1674.44276	0.09670
1672.38318	0.10153
1670.32359	0.10694
1668.26401	0.11314
1666.20442	0.11840
1664.14483	0.12333
1662.08525	0.12923
1660.02566	0.13496
1657.96608	0.13928
1655.90649	0.14291
1653.84691	0.14750
1651.78732	0.15229
1649.72774	0.15465
1647.66815	0.15612
1645.60857	0.15792
1643.54898	0.15909
1641.48940	0.15960
1639.42981	0.16007
1637.37023	0.16103
1635.31064	0.16267
1633.25106	0.16425
1631.19147	0.16563
1629.13189	0.16771
1627.07230	0.17087
1625.01272	0.17506
1622.95313	0.18025
1620.89355	0.18506
1618.83396	0.18854
1616.77438	0.19113
1614.71479	0.19199
1612.65520	0.19017
1610.59562	0.18603
1608.53603	0.18015
1606.47645	0.17315
1604.41686	0.16552
1602.35728	0.15752
1600.29769	0.14963
1598.23811	0.14227
1596.17852	0.13530
1594.11894	0.12859
1592.05935	0.12243
1589.99977	0.11692
1587.94018	0.11194
1585.88060	0.10747
1583.82101	0.10362
1581.76143	0.10047
1579.70184	0.09801
1577.64226	0.09609
1575.58267	0.09465
1573.52309	0.09383
1571.46350	0.09358
1569.40392	0.09400
1567.34433	0.09509
1565.28475	0.09663
1563.22516	0.09840
1561.16558	0.10093
1559.10599	0.10575
1557.04640	0.11156
1554.98682	0.11581
1552.92723	0.11967
1550.86765	0.12392
1548.80806	0.12822
1546.74848	0.13202
1544.68889	0.13558
1542.62931	0.13962
1540.56972	0.14438
1538.51014	0.14841
1536.45055	0.15046
1534.39097	0.15230
1532.33138	0.15499
1530.27180	0.15748
1528.21221	0.15959
1526.15263	0.16187
1524.09304	0.16432
1522.03346	0.16720
1519.97387	0.17041
1517.91429	0.17322
1515.85470	0.17540
1513.79512	0.17642
1511.73553	0.17612
1509.67595	0.17489
1507.61636	0.17260
1505.55677	0.16922
1503.49719	0.16562
1501.43760	0.16189
1499.37802	0.15754
1497.31843	0.15245
1495.25885	0.14719
1493.19926	0.14224
1491.13968	0.13688
1489.08009	0.13064
1487.02051	0.12471
1484.96092	0.11977
1482.90134	0.11542
1480.84175	0.11150
1478.78217	0.10837
1476.72258	0.10608
1474.66300	0.10450
1472.60341	0.10353
1470.54383	0.10284
1468.48424	0.10222
1466.42466	0.10175
1464.36507	0.10155
1462.30549	0.10157
1460.24590	0.10203
1458.18632	0.10360
1456.12673	0.10608
1454.06715	0.10769
1452.00756	0.10817
1449.94797	0.10825
1447.88839	0.10809
1445.82880	0.10742
1443.76922	0.10621
1441.70963	0.10468
1439.65005	0.10293
1437.59046	0.10099
1435.53088	0.09900
1433.47129	0.09730
1431.41171	0.09590
1429.35212	0.09474
1427.29254	0.09385
1425.23295	0.09326
1423.17337	0.09303
1421.11378	0.09312
1419.05420	0.09364
1416.99461	0.09449
1414.93503	0.09526
1412.87544	0.09581
1410.81586	0.09616
1408.75627	0.09636
1406.69669	0.09643
1404.63710	0.09626
1402.57752	0.09585
1400.51793	0.09537
1398.45834	0.09493
1396.39876	0.09456
1394.33917	0.09434
1392.27959	0.09418
1390.22000	0.09400
1388.16042	0.09383
1386.10083	0.09362
1384.04125	0.09323
1381.98166	0.09263
1379.92208	0.09196
1377.86249	0.09134
1375.80291	0.09085
1373.74332	0.09050
1371.68374	0.09014
1369.62415	0.08961
1367.56457	0.08882
1365.50498	0.08781
1363.44540	0.08668
1361.38581	0.08559
1359.32623	0.08469
1357.26664	0.08395
1355.20706	0.08328
1353.14747	0.08277
1351.08789	0.08249
1349.02830	0.08236
1346.96872	0.08229
1344.90913	0.08227
1342.84954	0.08232
1340.78996	0.08240
1338.73037	0.08239
1336.67079	0.08218
1334.61120	0.08192
1332.55162	0.08172
1330.49203	0.08154
1328.43245	0.08127
1326.37286	0.08090
1324.31328	0.08054
1322.25369	0.08030
1320.19411	0.08020
1318.13452	0.08030
1316.07494	0.08048
1314.01535	0.08058
1311.95577	0.08058
1309.89618	0.08056
1307.83660	0.08050
1305.77701	0.08037
1303.71743	0.08020
1301.65784	0.08009
1299.59826	0.07997
1297.53867	0.07973
1295.47909	0.07939
1293.41950	0.07902
1291.35991	0.07861
1289.30033	0.07830
1287.24074	0.07815
1285.18116	0.07806
1283.12157	0.07786
1281.06199	0.07750
1279.00240	0.07712
1276.94282	0.07680
1274.88323	0.07647
1272.82365	0.07613
1270.76406	0.07590
1268.70448	0.07589
1266.64489	0.07601
1264.58531	0.07613
1262.52572	0.07632
1260.46614	0.07675
1258.40655	0.07737
1256.34697	0.07809
1254.28738	0.07887
1252.22780	0.07975
1250.16821	0.08066
1248.10863	0.08146
1246.04904	0.08214
1243.98946	0.08277
1241.92987	0.08336
1239.87029	0.08378
1237.81070	0.08401
1235.75111	0.08407
1233.69153	0.08400
1231.63194	0.08387
1229.57236	0.08362
1227.51277	0.08316
1225.45319	0.08253
1223.39360	0.08185
1221.33402	0.08112
1219.27443	0.08032
1217.21485	0.07947
1215.15526	0.07857
1213.09568	0.07754
1211.03609	0.07640
1208.97651	0.07531
1206.91692	0.07429
1204.85734	0.07319
1202.79775	0.07192
1200.73817	0.07055
1198.67858	0.06928
1196.61900	0.06821
1194.55941	0.06728
1192.49983	0.06642
1190.44024	0.06552
1188.38066	0.06465
1186.32107	0.06397
1184.26149	0.06349
1182.20190	0.06319
1180.14231	0.06306
1178.08273	0.06307
1176.02314	0.06326
1173.96356	0.06375
1171.90397	0.06441
1169.84439	0.06503
1167.78480	0.06563
1165.72522	0.06626
1163.66563	0.06666
1161.60605	0.06665
1159.54646	0.06632
1157.48688	0.06579
1155.42729	0.06505
1153.36771	0.06419
1151.30812	0.06327
1149.24854	0.06236
1147.18895	0.06154
1145.12937	0.06070
1143.06978	0.05987
1141.01020	0.05931
1138.95061	0.05899
1136.89103	0.05868
1134.83144	0.05834
1132.77186	0.05809
1130.71227	0.05797
1128.65268	0.05786
1126.59310	0.05757
1124.53351	0.05712
1122.47393	0.05667
1120.41434	0.05621
1118.35476	0.05572
1116.29517	0.05532
1114.23559	0.05505
1112.17600	0.05485
1110.11642	0.05459
1108.05683	0.05440
1105.99725	0.05440
1103.93766	0.05447
1101.87808	0.05443
1099.81849	0.05431
1097.75891	0.05432
1095.69932	0.05454
1093.63974	0.05492
1091.58015	0.05543
1089.52057	0.05617
1087.46098	0.05714
1085.40140	0.05821
1083.34181	0.05935
1081.28223	0.06068
1079.22264	0.06209
1077.16306	0.06342
1075.10347	0.06460
1073.04388	0.06561
1070.98430	0.06657
1068.92471	0.06748
1066.86513	0.06810
1064.80554	0.06843
1062.74596	0.06854
1060.68637	0.06838
1058.62679	0.06801
1056.56720	0.06743
1054.50762	0.06676
1052.44803	0.06615
1050.38845	0.06557
1048.32886	0.06494
1046.26928	0.06425
1044.20969	0.06340
1042.15011	0.06238
1040.09052	0.06138
1038.03094	0.06055
1035.97135	0.05978
1033.91177	0.05896
1031.85218	0.05820
1029.79260	0.05746
1027.73301	0.05651
1025.67343	0.05536
1023.61384	0.05427
1021.55425	0.05327
1019.49467	0.05228
1017.43508	0.05133
1015.37550	0.05034
1013.31591	0.04935
1011.25633	0.04849
1009.19674	0.04776
1007.13716	0.04711
1005.07757	0.04643
1003.01799	0.04578
1000.95840	0.04522
998.89882	0.04460
996.83923	0.04403
994.77965	0.04369
992.72006	0.04345
990.66048	0.04309
988.60089	0.04265
986.54131	0.04234
984.48172	0.04213
982.42214	0.04190
980.36255	0.04167
978.30297	0.04156
976.24338	0.04154
974.18380	0.04155
972.12421	0.04161
970.06463	0.04165
968.00504	0.04172
965.94545	0.04198
963.88587	0.04223
961.82628	0.04226
959.76670	0.04209
957.70711	0.04184
955.64753	0.04156
953.58794	0.04118
951.52836	0.04075
949.46877	0.04049
947.40919	0.04035
945.34960	0.04014
943.29002	0.03991
941.23043	0.03966
939.17085	0.03942
937.11126	0.03933
935.05168	0.03935
932.99209	0.03942
930.93251	0.03943
928.87292	0.03927
926.81334	0.03898
924.75375	0.03862
922.69417	0.03825
920.63458	0.03796
918.57500	0.03768
916.51541	0.03732
914.45582	0.03693
912.39624	0.03664
910.33665	0.03644
908.27707	0.03631
906.21748	0.03625
904.15790	0.03619
902.09831	0.03618
900.03873	0.03622
897.97914	0.03611
895.91956	0.03587
893.85997	0.03573
891.80039	0.03555
889.74080	0.03508
887.68122	0.03450
885.62163	0.03420
883.56205	0.03413
881.50246	0.03403
879.44288	0.03383
877.38329	0.03363
875.32371	0.03350
873.26412	0.03339
871.20454	0.03322
869.14495	0.03297
867.08537	0.03264
865.02578	0.03227
862.96620	0.03194
860.90661	0.03169
858.84702	0.03150
856.78744	0.03137
854.72785	0.03131
852.66827	0.03126
850.60868	0.03118
848.54910	0.03103
846.48951	0.03082
844.42993	0.03070
842.37034	0.03075
840.31076	0.03087
838.25117	0.03090
836.19159	0.03089
834.13200	0.03099
832.07242	0.03125
830.01283	0.03155
827.95325	0.03176
825.89366	0.03182
823.83408	0.03182
821.77449	0.03184
819.71491	0.03170
817.65532	0.03148
815.59574	0.03157
813.53615	0.03187
811.47657	0.03208
809.41698	0.03212
807.35740	0.03209
805.29781	0.03209
803.23822	0.03210
801.17864	0.03214
799.11905	0.03229
797.05947	0.03240
794.99988	0.03229
792.94030	0.03224
790.88071	0.03249
788.82113	0.03294
786.76154	0.03335
784.70196	0.03368
782.64237	0.03395
780.58279	0.03420
778.52320	0.03455
776.46362	0.03506
774.40403	0.03555
772.34445	0.03587
770.28486	0.03601
768.22528	0.03609
766.16569	0.03628
764.10611	0.03655
762.04652	0.03669
759.98694	0.03677
757.92735	0.03696
755.86777	0.03726
753.80818	0.03752
751.74859	0.03773
749.68901	0.03800
747.62942	0.03814
745.56984	0.03801
743.51025	0.03784
741.45067	0.03777
739.39108	0.03776
737.33150	0.03775
735.27191	0.03779
733.21233	0.03799
731.15274	0.03832
729.09316	0.03863
727.03357	0.03904
724.97399	0.03971
722.91440	0.04045
720.85482	0.04127
718.79523	0.04222
716.73565	0.04310
714.67606	0.04384
712.61648	0.04463
710.55689	0.04562
708.49731	0.04691
706.43772	0.04839
704.37814	0.04977
702.31855	0.05084
700.25897	0.05159
698.19938	0.05209
696.13979	0.05227
694.08021	0.05215
692.02062	0.05193
689.96104	0.05183
687.90145	0.05184
685.84187	0.05185
683.78228	0.05190
681.72270	0.05206
679.66311	0.05225
677.60353	0.05237
675.54394	0.05238
673.48436	0.05235
671.42477	0.05234
669.36519	0.05248
667.30560	0.05285
665.24602	0.05302
663.18643	0.05296
661.12685	0.05296
659.06726	0.05319
657.00768	0.05344
654.94809	0.05348
652.88851	0.05339
650.82892	0.05337
648.76934	0.05353
646.70975	0.05379
644.65016	0.05399
642.59058	0.05413
640.53099	0.05424
638.47141	0.05447
636.41182	0.05484
634.35224	0.05517
632.29265	0.05538
630.23307	0.05552
628.17348	0.05565
626.11390	0.05573
624.05431	0.05566
621.99473	0.05540
619.93514	0.05519
617.87556	0.05526
615.81597	0.05526
613.75639	0.05490
611.69680	0.05455
609.63722	0.05437
607.57763	0.05403
605.51805	0.05354
603.45846	0.05327
601.39888	0.05336
599.33929	0.05355
597.27971	0.05355
595.22012	0.05329
593.16054	0.05291
591.10095	0.05278
589.04136	0.05296
586.98178	0.05321
584.92219	0.05336
582.86261	0.05332
580.80302	0.05301
578.74344	0.05264
576.68385	0.05254
574.62427	0.05275
572.56468	0.05301
570.50510	0.05313
568.44551	0.05298
566.38593	0.05266
564.32634	0.05244
562.26676	0.05238
560.20717	0.05246
558.14759	0.05253
556.08800	0.05257
554.02842	0.05253
551.96883	0.05228
549.90925	0.05197
547.84966	0.05187
545.79008	0.05179
543.73049	0.05154
541.67091	0.05124
539.61132	0.05105
537.55173	0.05107
535.49215	0.05111
533.43256	0.05107
531.37298	0.05112
529.31339	0.05124
527.25381	0.05136
525.19422	0.05156
523.13464	0.05165
521.07505	0.05152
519.01547	0.05128
516.95588	0.05086
514.89630	0.05027
512.83671	0.04976
510.77713	0.04934
508.71754	0.04899
506.65796	0.04889
504.59837	0.04889
502.53879	0.04876
500.47920	0.04842
498.41962	0.04794
496.36003	0.04752
494.30045	0.04720
492.24086	0.04692
490.18128	0.04665
488.12169	0.04656
486.06211	0.04656
484.00252	0.04629
481.94293	0.04577
479.88335	0.04530
477.82376	0.04505
475.76418	0.04501
473.70459	0.04499
471.64501	0.04497
469.58542	0.04507
467.52584	0.04526
465.46625	0.04542
463.40667	0.04531
461.34708	0.04488
459.28750	0.04428
457.22791	0.04383
455.16833	0.04365
453.10874	0.04347
451.04916	0.04304
448.98957	0.04252
446.92999	0.04222
444.87040	0.04208
442.81082	0.04161
440.75123	0.04078
438.69165	0.04009
436.63206	0.03961
434.57248	0.03909
432.51289	0.03859
430.45330	0.03825
428.39372	0.03811
426.33413	0.03821
424.27455	0.03828
422.21496	0.03815
420.15538	0.03794
418.09579	0.03759
416.03621	0.03706
413.97662	0.03672
411.91704	0.03676
409.85745	0.03671
407.79787	0.03586
405.73828	0.03451
403.67870	0.03368
401.61911	0.03358
399.55953	0.03352
