3997.65486	0.10750
3995.59527	0.10758
3993.53569	0.10738
3991.47610	0.10658
3989.41652	0.10592
3987.35693	0.10596
3985.29735	0.10621
3983.23776	0.10633
3981.17817	0.10638
3979.11859	0.10649
3977.05900	0.10671
3974.99942	0.10693
3972.93983	0.10708
3970.88025	0.10698
3968.82066	0.10643
3966.76108	0.10558
3964.70149	0.10494
3962.64191	0.10483
3960.58232	0.10511
3958.52274	0.10542
3956.46315	0.10556
3954.40357	0.10557
3952.34398	0.10537
3950.28440	0.10498
3948.22481	0.10480
3946.16523	0.10512
3944.10564	0.10554
3942.04606	0.10562
3939.98647	0.10539
3937.92689	0.10513
3935.86730	0.10503
3933.80772	0.10506
3931.74813	0.10492
3929.68855	0.10416
3927.62896	0.10309
3925.56937	0.10278
3923.50979	0.10330
3921.45020	0.10378
3919.39062	0.10380
3917.33103	0.10357
3915.27145	0.10325
3913.21186	0.10300
3911.15228	0.10310
3909.09269	0.10342
3907.03311	0.10391
3904.97352	0.10462
3902.91394	0.10486
3900.85435	0.10421
3898.79477	0.10357
3896.73518	0.10314
3894.67560	0.10243
3892.61601	0.10178
3890.55643	0.10175
3888.49684	0.10193
3886.43726	0.10177
3884.37767	0.10142
3882.31809	0.10117
3880.25850	0.10106
3878.19892	0.10107
3876.13933	0.10119
3874.07974	0.10147
3872.02016	0.10182
3869.96057	0.10189
3867.90099	0.10162
3865.84140	0.10128
3863.78182	0.10092
3861.72223	0.10032
3859.66265	0.09963
3857.60306	0.09933
3855.54348	0.09966
3853.48389	0.10048
3851.42431	0.10120
3849.36472	0.10124
3847.30514	0.10102
3845.24555	0.10091
3843.18597	0.10058
3841.12638	0.09983
3839.06680	0.09918
3837.00721	0.09891
3834.94763	0.09884
3832.88804	0.09902
3830.82846	0.09946
3828.76887	0.09970
3826.70929	0.09918
3824.64970	0.09799
3822.59012	0.09733
3820.53053	0.09801
3818.47094	0.09885
3816.41136	0.09897
3814.35177	0.09882
3812.29219	0.09849
3810.23260	0.09814
3808.17302	0.09817
3806.11343	0.09828
3804.05385	0.09785
3801.99426	0.09725
3799.93468	0.09686
3797.87509	0.09632
3795.81551	0.09580
3793.75592	0.09562
3791.69634	0.09562
3789.63675	0.09547
3787.57717	0.09510
3785.51758	0.09501
3783.45800	0.09541
3781.39841	0.09550
3779.33883	0.09507
3777.27924	0.09481
3775.21966	0.09477
3773.16007	0.09459
3771.10049	0.09431
3769.04090	0.09392
3766.98132	0.09356
3764.92173	0.09367
3762.86214	0.09394
3760.80256	0.09372
3758.74297	0.09335
3756.68339	0.09343
3754.62380	0.09362
3752.56422	0.09344
3750.50463	0.09277
3748.44505	0.09209
3746.38546	0.09199
3744.32588	0.09233
3742.26629	0.09266
3740.20671	0.09278
3738.14712	0.09256
3736.08754	0.09218
3734.02795	0.09218
3731.96837	0.09254
3729.90878	0.09256
3727.84920	0.09188
3725.78961	0.09080
3723.73003	0.08996
3721.67044	0.08961
3719.61086	0.08979
3717.55127	0.08994
3715.49169	0.08955
3713.43210	0.08908
3711.37251	0.08931
3709.31293	0.08990
3707.25334	0.08978
3705.19376	0.08883
3703.13417	0.08798
3701.07459	0.08789
3699.01500	0.08830
3696.95542	0.08865
3694.89583	0.08853
3692.83625	0.08803
3690.77666	0.08769
3688.71708	0.08773
3686.65749	0.08806
3684.59791	0.08827
3682.53832	0.08781
3680.47874	0.08697
3678.41915	0.08624
3676.35957	0.08583
3674.29998	0.08595
3672.24040	0.08645
3670.18081	0.08696
3668.12123	0.08703
3666.06164	0.08703
3664.00206	0.08759
3661.94247	0.08793
3659.88289	0.08738
3657.82330	0.08693
3655.76371	0.08736
3653.70413	0.08795
3651.64454	0.08839
3649.58496	0.08898
3647.52537	0.08927
3645.46579	0.08868
3643.40620	0.08787
3641.34662	0.08775
3639.28703	0.08816
3637.22745	0.08840
3635.16786	0.08834
3633.10828	0.08857
3631.04869	0.08965
3628.98911	0.09103
3626.92952	0.09116
3624.86994	0.09027
3622.81035	0.08942
3620.75077	0.08898
3618.69118	0.08906
3616.63160	0.08940
3614.57201	0.08998
3612.51243	0.09061
3610.45284	0.09046
3608.39326	0.08967
3606.33367	0.08956
3604.27408	0.09029
3602.21450	0.09108
3600.15491	0.09176
3598.09533	0.09246
3596.03574	0.09295
3593.97616	0.09291
3591.91657	0.09251
3589.85699	0.09234
3587.79740	0.09294
3585.73782	0.09379
3583.67823	0.09403
3581.61865	0.09413
3579.55906	0.09464
3577.49948	0.09516
3575.43989	0.09542
3573.38031	0.09569
3571.32072	0.09589
3569.26114	0.09594
3567.20155	0.09607
3565.14197	0.09618
3563.08238	0.09614
3561.02280	0.09644
3558.96321	0.09723
3556.90363	0.09788
3554.84404	0.09805
3552.78446	0.09821
3550.72487	0.09883
3548.66528	0.09968
3546.60570	0.10045
3544.54611	0.10089
3542.48653	0.10098
3540.42694	0.10111
3538.36736	0.10147
3536.30777	0.10194
3534.24819	0.10258
3532.18860	0.10331
3530.12902	0.10390
3528.06943	0.10437
3526.00985	0.10472
3523.95026	0.10489
3521.89068	0.10519
3519.83109	0.10569
3517.77151	0.10629
3515.71192	0.10700
3513.65234	0.10749
3511.59275	0.10735
3509.53317	0.10696
3507.47358	0.10714
3505.41400	0.10805
3503.35441	0.10884
3501.29483	0.10888
3499.23524	0.10867
3497.17565	0.10912
3495.11607	0.11029
3493.05648	0.11133
3490.99690	0.11171
3488.93731	0.11192
3486.87773	0.11233
3484.81814	0.11262
3482.75856	0.11292
3480.69897	0.11347
3478.63939	0.11397
3476.57980	0.11469
3474.52022	0.11572
3472.46063	0.11632
3470.40105	0.11626
3468.34146	0.11608
3466.28188	0.11625
3464.22229	0.11679
3462.16271	0.11747
3460.10312	0.11808
3458.04354	0.11856
3455.98395	0.11908
3453.92437	0.11970
3451.86478	0.12025
3449.80520	0.12092
3447.74561	0.12192
3445.68603	0.12265
3443.62644	0.12271
3441.56685	0.12268
3439.50727	0.12295
3437.44768	0.12367
3435.38810	0.12481
3433.32851	0.12559
3431.26893	0.12566
3429.20934	0.12562
3427.14976	0.12587
3425.09017	0.12658
3423.03059	0.12774
3420.97100	0.12871
3418.91142	0.12901
3416.85183	0.12909
3414.79225	0.12950
3412.73266	0.13015
3410.67308	0.13049
3408.61349	0.13045
3406.55391	0.13077
3404.49432	0.13161
3402.43474	0.13218
3400.37515	0.13251
3398.31557	0.13286
3396.25598	0.13323
3394.19640	0.13381
3392.13681	0.13445
3390.07723	0.13499
3388.01764	0.13547
3385.95805	0.13596
3383.89847	0.13670
3381.83888	0.13758
3379.77930	0.13808
3377.71971	0.13819
3375.66013	0.13856
3373.60054	0.13969
3371.54096	0.14104
3369.48137	0.14195
3367.42179	0.14255
3365.36220	0.14295
3363.30262	0.14330
3361.24303	0.14400
3359.18345	0.14499
3357.12386	0.14603
3355.06428	0.14698
3353.00469	0.14811
3350.94511	0.14947
3348.88552	0.15019
3346.82594	0.15050
3344.76635	0.15138
3342.70677	0.15257
3340.64718	0.15371
3338.58760	0.15469
3336.52801	0.15566
3334.46842	0.15698
3332.40884	0.15847
3330.34925	0.16002
3328.28967	0.16151
3326.23008	0.16266
3324.17050	0.16393
3322.11091	0.16570
3320.05133	0.16756
3317.99174	0.16896
3315.93216	0.17007
3313.87257	0.17178
3311.81299	0.17407
3309.75340	0.17628
3307.69382	0.17809
3305.63423	0.17948
3303.57465	0.18111
3301.51506	0.18341
3299.45548	0.18590
3297.39589	0.18827
3295.33631	0.19051
3293.27672	0.19249
3291.21714	0.19405
3289.15755	0.19547
3287.09797	0.19737
3285.03838	0.19957
3282.97880	0.20123
3280.91921	0.20248
3278.85962	0.20399
3276.80004	0.20570
3274.74045	0.20688
3272.68087	0.20736
3270.62128	0.20781
3268.56170	0.20823
3266.50211	0.20832
3264.44253	0.20817
3262.38294	0.20747
3260.32336	0.20640
3258.26377	0.20548
3256.20419	0.20451
3254.14460	0.20362
3252.08502	0.20290
3250.02543	0.20224
3247.96585	0.20135
3245.90626	0.19999
3243.84668	0.19861
3241.78709	0.19734
3239.72751	0.19598
3237.66792	0.19490
3235.60834	0.19430
3233.54875	0.19349
3231.48917	0.19208
3229.42958	0.19054
3227.36999	0.18916
3225.31041	0.18801
3223.25082	0.18724
3221.19124	0.18671
3219.13165	0.18587
3217.07207	0.18493
3215.01248	0.18447
3212.95290	0.18415
3210.89331	0.18352
3208.83373	0.18276
3206.77414	0.18210
3204.71456	0.18159
3202.65497	0.18113
3200.59539	0.18045
3198.53580	0.17957
3196.47622	0.17889
3194.41663	0.17844
3192.35705	0.17763
3190.29746	0.17653
3188.23788	0.17562
3186.17829	0.17478
3184.11871	0.17372
3182.05912	0.17242
3179.99954	0.17105
3177.93995	0.16982
3175.88037	0.16882
3173.82078	0.16811
3171.76119	0.16770
3169.70161	0.16726
3167.64202	0.16633
3165.58244	0.16496
3163.52285	0.16359
3161.46327	0.16247
3159.40368	0.16139
3157.34410	0.16022
3155.28451	0.15930
3153.22493	0.15859
3151.16534	0.15738
3149.10576	0.15577
3147.04617	0.15473
3144.98659	0.15430
3142.92700	0.15371
3140.86742	0.15288
3138.80783	0.15213
3136.74825	0.15123
3134.68866	0.14998
3132.62908	0.14899
3130.56949	0.14848
3128.50991	0.14788
3126.45032	0.14708
3124.39074	0.14635
3122.33115	0.14567
3120.27156	0.14505
3118.21198	0.14450
3116.15239	0.14387
3114.09281	0.14323
3112.03322	0.14291
3109.97364	0.14280
3107.91405	0.14254
3105.85447	0.14219
3103.79488	0.14199
3101.73530	0.14206
3099.67571	0.14211
3097.61613	0.14198
3095.55654	0.14203
3093.49696	0.14226
3091.43737	0.14226
3089.37779	0.14217
3087.31820	0.14251
3085.25862	0.14310
3083.19903	0.14344
3081.13945	0.14345
3079.07986	0.14332
3077.02028	0.14322
3074.96069	0.14316
3072.90111	0.14307
3070.84152	0.14295
3068.78194	0.14277
3066.72235	0.14271
3064.66276	0.14284
3062.60318	0.14274
3060.54359	0.14240
3058.48401	0.14194
3056.42442	0.14158
3054.36484	0.14152
3052.30525	0.14133
3050.24567	0.14056
3048.18608	0.13954
3046.12650	0.13880
3044.06691	0.13830
3042.00733	0.13777
3039.94774	0.13741
3037.88816	0.13724
3035.82857	0.13704
3033.76899	0.13672
3031.70940	0.13602
3029.64982	0.13495
3027.59023	0.13393
3025.53065	0.13325
3023.47106	0.13264
3021.41148	0.13157
3019.35189	0.13043
3017.29231	0.13000
3015.23272	0.12986
3013.17313	0.12915
3011.11355	0.12819
3009.05396	0.12763
3006.99438	0.12733
3004.93479	0.12684
3002.87521	0.12622
3000.81562	0.12590
2998.75604	0.12580
2996.69645	0.12571
2994.63687	0.12570
2992.57728	0.12586
2990.51770	0.12621
2988.45811	0.12671
2986.39853	0.12736
2984.33894	0.12816
2982.27936	0.12892
2980.21977	0.12935
2978.16019	0.12969
2976.10060	0.13049
2974.04102	0.13148
2971.98143	0.13207
2969.92185	0.13274
2967.86226	0.13377
2965.80268	0.13462
2963.74309	0.13520
2961.68351	0.13545
2959.62392	0.13510
2957.56433	0.13447
2955.50475	0.13403
2953.44516	0.13397
2951.38558	0.13388
2949.32599	0.13330
2947.26641	0.13281
2945.20682	0.13294
2943.14724	0.13344
2941.08765	0.13431
2939.02807	0.13554
2936.96848	0.13632
2934.90890	0.13646
2932.84931	0.13670
2930.78973	0.13703
2928.73014	0.13702
2926.67056	0.13660
2924.61097	0.13584
2922.55139	0.13507
2920.49180	0.13461
2918.43222	0.13429
2916.37263	0.13360
2914.31305	0.13239
2912.25346	0.13112
2910.19388	0.13008
2908.13429	0.12928
2906.07471	0.12856
2904.01512	0.12772
2901.95553	0.12688
2899.89595	0.12610
2897.83636	0.12546
2895.77678	0.12516
2893.71719	0.12507
2891.65761	0.12485
2889.59802	0.12460
2887.53844	0.12459
2885.47885	0.12448
2883.41927	0.12417
2881.35968	0.12440
2879.30010	0.12535
2877.24051	0.12620
2875.18093	0.12652
2873.12134	0.12636
2871.06176	0.12590
2869.00217	0.12534
2866.94259	0.12460
2864.88300	0.12368
2862.82342	0.12283
2860.76383	0.12206
2858.70425	0.12130
2856.64466	0.12088
2854.58508	0.12080
2852.52549	0.12043
2850.46590	0.11975
2848.40632	0.11899
2846.34673	0.11829
2844.28715	0.11770
2842.22756	0.11720
2840.16798	0.11667
2838.10839	0.11599
2836.04881	0.11540
2833.98922	0.11501
2831.92964	0.11437
2829.87005	0.11364
2827.81047	0.11333
2825.75088	0.11315
2823.69130	0.11285
2821.63171	0.11259
2819.57213	0.11235
2817.51254	0.11217
2815.45296	0.11207
2813.39337	0.11189
2811.33379	0.11168
2809.27420	0.11151
2807.21462	0.11127
2805.15503	0.11110
2803.09545	0.11101
2801.03586	0.11072
2798.97628	0.11016
2796.91669	0.10951
2794.85710	0.10899
2792.79752	0.10862
2790.73793	0.10839
2788.67835	0.10841
2786.61876	0.10848
2784.55918	0.10826
2782.49959	0.10774
2780.44001	0.10728
2778.38042	0.10716
2776.32084	0.10707
2774.26125	0.10683
2772.20167	0.10668
2770.14208	0.10672
2768.08250	0.10660
2766.02291	0.10624
2763.96333	0.10591
2761.90374	0.10559
2759.84416	0.10523
2757.78457	0.10512
2755.72499	0.10512
2753.66540	0.10486
2751.60582	0.10440
2749.54623	0.10406
2747.48665	0.10388
2745.42706	0.10370
2743.36747	0.10336
2741.30789	0.10295
2739.24830	0.10270
2737.18872	0.10260
2735.12913	0.10239
2733.06955	0.10202
2731.00996	0.10165
2728.95038	0.10148
2726.89079	0.10144
2724.83121	0.10121
2722.77162	0.10074
2720.71204	0.10035
2718.65245	0.10021
2716.59287	0.10017
2714.53328	0.10009
2712.47370	0.09988
2710.41411	0.09956
2708.35453	0.09932
2706.29494	0.09900
2704.23536	0.09859
2702.17577	0.09833
2700.11619	0.09828
2698.05660	0.09828
2695.99702	0.09817
2693.93743	0.09794
2691.87785	0.09770
2689.81826	0.09745
2687.75867	0.09707
2685.69909	0.09673
2683.63950	0.09648
2681.57992	0.09621
2679.52033	0.09606
2677.46075	0.09596
2675.40116	0.09568
2673.34158	0.09541
2671.28199	0.09548
2669.22241	0.09581
2667.16282	0.09592
2665.10324	0.09567
2663.04365	0.09537
2660.98407	0.09504
2658.92448	0.09475
2656.86490	0.09468
2654.80531	0.09462
2652.74573	0.09429
2650.68614	0.09401
2648.62656	0.09396
2646.56697	0.09385
2644.50739	0.09356
2642.44780	0.09307
2640.38822	0.09257
2638.32863	0.09237
2636.26904	0.09230
2634.20946	0.09212
2632.14987	0.09191
2630.09029	0.09171
2628.03070	0.09132
2625.97112	0.09082
2623.91153	0.09057
2621.85195	0.09061
2619.79236	0.09057
2617.73278	0.09019
2615.67319	0.08948
2613.61361	0.08896
2611.55402	0.08889
2609.49444	0.08881
2607.43485	0.08839
2605.37527	0.08776
2603.31568	0.08725
2601.25610	0.08709
2599.19651	0.08721
2597.13693	0.08739
2595.07734	0.08745
2593.01776	0.08712
2590.95817	0.08629
2588.89859	0.08552
2586.83900	0.08523
2584.77942	0.08507
2582.71983	0.08484
2580.66024	0.08456
2578.60066	0.08414
2576.54107	0.08384
2574.48149	0.08392
2572.42190	0.08417
2570.36232	0.08430
2568.30273	0.08418
2566.24315	0.08398
2564.18356	0.08379
2562.12398	0.08346
2560.06439	0.08320
2558.00481	0.08312
2555.94522	0.08288
2553.88564	0.08256
2551.82605	0.08251
2549.76647	0.08266
2547.70688	0.08267
2545.64730	0.08218
2543.58771	0.08146
2541.52813	0.08130
2539.46854	0.08170
2537.40896	0.08179
2535.34937	0.08122
2533.28979	0.08059
2531.23020	0.08024
2529.17062	0.08011
2527.11103	0.08028
2525.05144	0.08045
2522.99186	0.08028
2520.93227	0.07990
2518.87269	0.07954
2516.81310	0.07950
2514.75352	0.07972
2512.69393	0.07969
2510.63435	0.07942
2508.57476	0.07923
2506.51518	0.07925
2504.45559	0.07925
2502.39601	0.07923
2500.33642	0.07935
2498.27684	0.07911
2496.21725	0.07847
2494.15767	0.07797
2492.09808	0.07789
2490.03850	0.07803
2487.97891	0.07827
2485.91933	0.07845
2483.85974	0.07802
2481.80016	0.07734
2479.74057	0.07717
2477.68099	0.07733
2475.62140	0.07730
2473.56181	0.07698
2471.50223	0.07671
2469.44264	0.07678
2467.38306	0.07717
2465.32347	0.07728
2463.26389	0.07665
2461.20430	0.07586
2459.14472	0.07566
2457.08513	0.07592
2455.02555	0.07604
2452.96596	0.07559
2450.90638	0.07500
2448.84679	0.07513
2446.78721	0.07567
2444.72762	0.07572
2442.66804	0.07535
2440.60845	0.07485
2438.54887	0.07451
2436.48928	0.07469
2434.42970	0.07514
2432.37011	0.07515
2430.31053	0.07469
2428.25094	0.07426
2426.19136	0.07401
2424.13177	0.07382
2422.07219	0.07366
2420.01260	0.07371
2417.95301	0.07396
2415.89343	0.07394
2413.83384	0.07351
2411.77426	0.07312
2409.71467	0.07320
2407.65509	0.07347
2405.59550	0.07334
2403.53592	0.07285
2401.47633	0.07253
2399.41675	0.07257
2397.35716	0.07282
2395.29758	0.07294
2393.23799	0.07281
2391.17841	0.07252
2389.11882	0.07231
2387.05924	0.07225
2384.99965	0.07229
2382.94007	0.07233
2380.88048	0.07232
2378.82090	0.07234
2376.76131	0.07244
2374.70173	0.07213
2372.64214	0.07226
2370.58256	0.07303
2368.52297	0.07354
2366.46338	0.07401
2364.40380	0.07326
2362.34421	0.07307
2360.28463	0.07370
2358.22504	0.07434
2356.16546	0.07336
2354.10587	0.07321
2352.04629	0.07359
2349.98670	0.07273
2347.92712	0.07154
2345.86753	0.07236
2343.80795	0.07560
2341.74836	0.07445
2339.68878	0.06849
2337.62919	0.06639
2335.56961	0.07098
2333.51002	0.07662
2331.45044	0.07784
2329.39085	0.07523
2327.33127	0.07149
2325.27168	0.06797
2323.21210	0.06644
2321.15251	0.06660
2319.09293	0.06794
2317.03334	0.06869
2314.97376	0.06952
2312.91417	0.06936
2310.85458	0.06871
2308.79500	0.06797
2306.73541	0.06728
2304.67583	0.06706
2302.61624	0.06709
2300.55666	0.06733
2298.49707	0.06757
2296.43749	0.06778
2294.37790	0.06775
2292.31832	0.06771
2290.25873	0.06748
2288.19915	0.06668
2286.13956	0.06539
2284.07998	0.06457
2282.02039	0.06440
2279.96081	0.06430
2277.90122	0.06406
2275.84164	0.06370
2273.78205	0.06330
2271.72247	0.06308
2269.66288	0.06317
2267.60330	0.06312
2265.54371	0.06244
2263.48413	0.06153
2261.42454	0.06109
2259.36495	0.06101
2257.30537	0.06092
2255.24578	0.06051
2253.18620	0.05979
2251.12661	0.05938
2249.06703	0.05961
2247.00744	0.05973
2244.94786	0.05905
2242.88827	0.05835
2240.82869	0.05803
2238.76910	0.05784
2236.70952	0.05783
2234.64993	0.05802
2232.59035	0.05835
2230.53076	0.05848
2228.47118	0.05821
2226.41159	0.05755
2224.35201	0.05633
2222.29242	0.05533
2220.23284	0.05528
2218.17325	0.05565
2216.11367	0.05595
2214.05408	0.05606
2211.99450	0.05605
2209.93491	0.05597
2207.87533	0.05564
2205.81574	0.05500
2203.75615	0.05417
2201.69657	0.05355
2199.63698	0.05349
2197.57740	0.05390
2195.51781	0.05418
2193.45823	0.05393
2191.39864	0.05381
2189.33906	0.05385
2187.27947	0.05302
2185.21989	0.05145
2183.16030	0.05004
2181.10072	0.04973
2179.04113	0.05050
2176.98155	0.05117
2174.92196	0.05126
2172.86238	0.05120
2170.80279	0.05145
2168.74321	0.05143
2166.68362	0.04985
2164.62404	0.04754
2162.56445	0.04596
2160.50487	0.04430
2158.44528	0.04308
2156.38570	0.04386
2154.32611	0.04562
2152.26652	0.04738
2150.20694	0.04852
2148.14735	0.04795
2146.08777	0.04656
2144.02818	0.04654
2141.96860	0.04762
2139.90901	0.04846
2137.84943	0.04915
2135.78984	0.05007
2133.73026	0.05111
2131.67067	0.05183
2129.61109	0.05179
2127.55150	0.05135
2125.49192	0.05104
2123.43233	0.05166
2121.37275	0.05318
2119.31316	0.05387
2117.25358	0.05367
2115.19399	0.05380
2113.13441	0.05407
2111.07482	0.05409
2109.01524	0.05375
2106.95565	0.05300
2104.89607	0.05262
2102.83648	0.05257
2100.77690	0.05233
2098.71731	0.05239
2096.65772	0.05230
2094.59814	0.05162
2092.53855	0.05067
2090.47897	0.04988
2088.41938	0.05016
2086.35980	0.05113
2084.30021	0.05132
2082.24063	0.05103
2080.18104	0.05093
2078.12146	0.05066
2076.06187	0.05030
2074.00229	0.05014
2071.94270	0.05008
2069.88312	0.04990
2067.82353	0.04942
2065.76395	0.04898
2063.70436	0.04857
2061.64478	0.04794
2059.58519	0.04758
2057.52561	0.04748
2055.46602	0.04713
2053.40644	0.04716
2051.34685	0.04765
2049.28727	0.04711
2047.22768	0.04579
2045.16810	0.04511
2043.10851	0.04444
2041.04892	0.04298
2038.98934	0.04131
2036.92975	0.04019
2034.87017	0.03979
2032.81058	0.03970
2030.75100	0.03974
2028.69141	0.03983
2026.63183	0.04016
2024.57224	0.04060
2022.51266	0.04005
2020.45307	0.03851
2018.39349	0.03769
2016.33390	0.03794
2014.27432	0.03835
2012.21473	0.03922
2010.15515	0.03994
2008.09556	0.03958
2006.03598	0.03963
2003.97639	0.04110
2001.91681	0.04247
1999.85722	0.04249
1997.79764	0.04150
1995.73805	0.04041
1993.67847	0.03971
1991.61888	0.03973
1989.55929	0.04056
1987.49971	0.04093
1985.44012	0.04019
1983.38054	0.03968
1981.32095	0.03970
1979.26137	0.03897
1977.20178	0.03776
1975.14220	0.03696
1973.08261	0.03634
1971.02303	0.03638
1968.96344	0.03748
1966.90386	0.03839
1964.84427	0.03831
1962.78469	0.03820
1960.72510	0.03859
1958.66552	0.03901
1956.60593	0.03931
1954.54635	0.03950
1952.48676	0.03979
1950.42718	0.04012
1948.36759	0.03991
1946.30801	0.03938
1944.24842	0.03930
1942.18884	0.03955
1940.12925	0.03949
1938.06967	0.03924
1936.01008	0.03947
1933.95049	0.04012
1931.89091	0.04042
1929.83132	0.04032
1927.77174	0.04025
1925.71215	0.04023
1923.65257	0.04009
1921.59298	0.03980
1919.53340	0.03959
1917.47381	0.03961
1915.41423	0.03966
1913.35464	0.03982
1911.29506	0.04019
1909.23547	0.04038
1907.17589	0.04014
1905.11630	0.03973
1903.05672	0.03948
1900.99713	0.03947
1898.93755	0.03957
1896.87796	0.03968
1894.81838	0.03970
1892.75879	0.03958
1890.69921	0.03941
1888.63962	0.03933
1886.58004	0.03945
1884.52045	0.03955
1882.46086	0.03933
1880.40128	0.03893
1878.34169	0.03861
1876.28211	0.03833
1874.22252	0.03801
1872.16294	0.03776
1870.10335	0.03771
1868.04377	0.03782
1865.98418	0.03795
1863.92460	0.03802
1861.86501	0.03802
1859.80543	0.03793
1857.74584	0.03768
1855.68626	0.03741
1853.62667	0.03725
1851.56709	0.03711
1849.50750	0.03681
1847.44792	0.03636
1845.38833	0.03596
1843.32875	0.03592
1841.26916	0.03610
1839.20958	0.03609
1837.14999	0.03579
1835.09041	0.03545
1833.03082	0.03528
1830.97124	0.03518
1828.91165	0.03493
1826.85206	0.03467
1824.79248	0.03470
1822.73289	0.03490
1820.67331	0.03491
1818.61372	0.03466
1816.55414	0.03435
1814.49455	0.03416
1812.43497	0.03400
1810.37538	0.03380
1808.31580	0.03357
1806.25621	0.03339
1804.19663	0.03330
1802.13704	0.03331
1800.07746	0.03328
1798.01787	0.03304
1795.95829	0.03272
1793.89870	0.03257
1791.83912	0.03253
1789.77953	0.03227
1787.71995	0.03180
1785.66036	0.03136
1783.60078	0.03097
1781.54119	0.03058
1779.48161	0.03021
1777.42202	0.02995
1775.36243	0.02989
1773.30285	0.02991
1771.24326	0.02976
1769.18368	0.02944
1767.12409	0.02920
1765.06451	0.02907
1763.00492	0.02895
1760.94534	0.02874
1758.88575	0.02843
1756.82617	0.02806
1754.76658	0.02769
1752.70700	0.02745
1750.64741	0.02743
1748.58783	0.02747
1746.52824	0.02735
1744.46866	0.02706
1742.40907	0.02675
1740.34949	0.02650
1738.28990	0.02630
1736.23032	0.02609
1734.17073	0.02575
1732.11115	0.02536
1730.05156	0.02512
1727.99198	0.02501
1725.93239	0.02482
1723.87281	0.02458
1721.81322	0.02455
1719.75363	0.02480
1717.69405	0.02508
1715.63446	0.02538
1713.57488	0.02590
1711.51529	0.02669
1709.45571	0.02779
1707.39612	0.02957
1705.33654	0.03230
1703.27695	0.03596
1701.21737	0.04158
1699.15778	0.04903
1697.09820	0.05512
1695.03861	0.05915
1692.97903	0.06212
1690.91944	0.06494
1688.85986	0.06818
1686.80027	0.07208
1684.74069	0.07774
1682.68110	0.08438
1680.62152	0.08927
1678.56193	0.09306
1676.50235	0.09747
1674.44276	0.10285
1672.38318	0.10826
1670.32359	0.11417
1668.26401	0.12073
1666.20442	0.12628
1664.14483	0.13157
1662.08525	0.13785
1660.02566	0.14382
1657.96608	0.14827
1655.90649	0.15213
1653.84691	0.15742
1651.78732	0.16321
1649.72774	0.16604
1647.66815	0.16758
1645.60857	0.16935
1643.54898	0.17029
1641.48940	0.17042
1639.42981	0.17039
1637.37023	0.17053
1635.31064	0.17093
1633.25106	0.17115
1631.19147	0.17120
1629.13189	0.17184
1627.07230	0.17344
1625.01272	0.17588
1622.95313	0.17918
1620.89355	0.18232
1618.83396	0.18456
1616.77438	0.18620
1614.71479	0.18645
1612.65520	0.18442
1610.59562	0.18037
1608.53603	0.17485
1606.47645	0.16849
1604.41686	0.16168
1602.35728	0.15459
1600.29769	0.14756
1598.23811	0.14095
1596.17852	0.13468
1594.11894	0.12868
1592.05935	0.12312
1589.99977	0.11811
1587.94018	0.11364
1585.88060	0.10974
1583.82101	0.10645
1581.76143	0.10382
1579.70184	0.10181
1577.64226	0.10029
1575.58267	0.09914
1573.52309	0.09849
1571.46350	0.09839
1569.40392	0.09896
1567.34433	0.10012
1565.28475	0.10173
1563.22516	0.10359
1561.16558	0.10614
1559.10599	0.11094
1557.04640	0.11686
1554.98682	0.12134
1552.92723	0.12548
1550.86765	0.12999
1548.80806	0.13432
1546.74848	0.13801
1544.68889	0.14159
1542.62931	0.14585
1540.56972	0.15078
1538.51014	0.15475
1536.45055	0.15659
1534.39097	0.15810
1532.33138	0.16031
1530.27180	0.16240
1528.21221	0.16422
1526.15263	0.16611
1524.09304	0.16795
1522.03346	0.17020
1519.97387	0.17303
1517.91429	0.17564
1515.85470	0.17759
1513.79512	0.17840
1511.73553	0.17809
1509.67595	0.17696
1507.61636	0.17457
1505.55677	0.17090
1503.49719	0.16726
1501.43760	0.16376
1499.37802	0.15973
1497.31843	0.15482
1495.25885	0.14956
1493.19926	0.14469
1491.13968	0.13959
1489.08009	0.13354
1487.02051	0.12756
1484.96092	0.12252
1482.90134	0.11816
1480.84175	0.11423
1478.78217	0.11099
1476.72258	0.10868
1474.66300	0.10729
1472.60341	0.10655
1470.54383	0.10592
1468.48424	0.10524
1466.42466	0.10473
1464.36507	0.10445
1462.30549	0.10431
1460.24590	0.10464
1458.18632	0.10626
1456.12673	0.10889
1454.06715	0.11056
1452.00756	0.11100
1449.94797	0.11097
1447.88839	0.11064
1445.82880	0.10983
1443.76922	0.10859
1441.70963	0.10715
1439.65005	0.10556
1437.59046	0.10370
1435.53088	0.10172
1433.47129	0.09997
1431.41171	0.09852
1429.35212	0.09733
1427.29254	0.09642
1425.23295	0.09582
1423.17337	0.09559
1421.11378	0.09574
1419.05420	0.09631
1416.99461	0.09715
1414.93503	0.09785
1412.87544	0.09836
1410.81586	0.09875
1408.75627	0.09902
1406.69669	0.09919
1404.63710	0.09917
1402.57752	0.09891
1400.51793	0.09853
1398.45834	0.09822
1396.39876	0.09798
1394.33917	0.09777
1392.27959	0.09760
1390.22000	0.09752
1388.16042	0.09761
1386.10083	0.09763
1384.04125	0.09727
1381.98166	0.09666
1379.92208	0.09602
1377.86249	0.09539
1375.80291	0.09483
1373.74332	0.09438
1371.68374	0.09393
1369.62415	0.09323
1367.56457	0.09222
1365.50498	0.09108
1363.44540	0.08996
1361.38581	0.08890
1359.32623	0.08797
1357.26664	0.08720
1355.20706	0.08655
1353.14747	0.08605
1351.08789	0.08573
1349.02830	0.08556
1346.96872	0.08553
1344.90913	0.08558
1342.84954	0.08567
1340.78996	0.08581
1338.73037	0.08590
1336.67079	0.08575
1334.61120	0.08540
1332.55162	0.08506
1330.49203	0.08481
1328.43245	0.08456
1326.37286	0.08425
1324.31328	0.08395
1322.25369	0.08374
1320.19411	0.08365
1318.13452	0.08368
1316.07494	0.08372
1314.01535	0.08373
1311.95577	0.08371
1309.89618	0.08369
1307.83660	0.08364
1305.77701	0.08355
1303.71743	0.08348
1301.65784	0.08349
1299.59826	0.08346
1297.53867	0.08324
1295.47909	0.08284
1293.41950	0.08229
1291.35991	0.08176
1289.30033	0.08145
1287.24074	0.08139
1285.18116	0.08135
1283.12157	0.08113
1281.06199	0.08076
1279.00240	0.08042
1276.94282	0.08023
1274.88323	0.08008
1272.82365	0.07987
1270.76406	0.07974
1268.70448	0.07977
1266.64489	0.07986
1264.58531	0.07997
1262.52572	0.08023
1260.46614	0.08073
1258.40655	0.08136
1256.34697	0.08203
1254.28738	0.08279
1252.22780	0.08358
1250.16821	0.08439
1248.10863	0.08519
1246.04904	0.08589
1243.98946	0.08647
1241.92987	0.08700
1239.87029	0.08742
1237.81070	0.08767
1235.75111	0.08778
1233.69153	0.08775
1231.63194	0.08754
1229.57236	0.08713
1227.51277	0.08654
1225.45319	0.08588
1223.39360	0.08516
1221.33402	0.08434
1219.27443	0.08341
1217.21485	0.08247
1215.15526	0.08150
1213.09568	0.08043
1211.03609	0.07927
1208.97651	0.07814
1206.91692	0.07706
1204.85734	0.07594
1202.79775	0.07474
1200.73817	0.07349
1198.67858	0.07223
1196.61900	0.07107
1194.55941	0.07010
1192.49983	0.06925
1190.44024	0.06845
1188.38066	0.06770
1186.32107	0.06705
1184.26149	0.06655
1182.20190	0.06615
1180.14231	0.06595
1178.08273	0.06596
1176.02314	0.06624
1173.96356	0.06673
1171.90397	0.06719
1169.84439	0.06764
1167.78480	0.06816
1165.72522	0.06862
1163.66563	0.06891
1161.60605	0.06892
1159.54646	0.06862
1157.48688	0.06808
1155.42729	0.06738
1153.36771	0.06660
1151.30812	0.06579
1149.24854	0.06497
1147.18895	0.06414
1145.12937	0.06331
1143.06978	0.06251
1141.01020	0.06188
1138.95061	0.06145
1136.89103	0.06114
1134.83144	0.06089
1132.77186	0.06067
1130.71227	0.06048
1128.65268	0.06023
1126.59310	0.05986
1124.53351	0.05948
1122.47393	0.05911
1120.41434	0.05870
1118.35476	0.05829
1116.29517	0.05797
1114.23559	0.05765
1112.17600	0.05730
1110.11642	0.05706
1108.05683	0.05698
1105.99725	0.05702
1103.93766	0.05709
1101.87808	0.05707
1099.81849	0.05695
1097.75891	0.05685
1095.69932	0.05694
1093.63974	0.05726
1091.58015	0.05780
1089.52057	0.05858
1087.46098	0.05956
1085.40140	0.06060
1083.34181	0.06168
1081.28223	0.06287
1079.22264	0.06405
1077.16306	0.06509
1075.10347	0.06600
1073.04388	0.06683
1070.98430	0.06765
1068.92471	0.06839
1066.86513	0.06886
1064.80554	0.06908
1062.74596	0.06917
1060.68637	0.06911
1058.62679	0.06890
1056.56720	0.06847
1054.50762	0.06782
1052.44803	0.06717
1050.38845	0.06660
1048.32886	0.06606
1046.26928	0.06544
1044.20969	0.06465
1042.15011	0.06369
1040.09052	0.06277
1038.03094	0.06196
1035.97135	0.06118
1033.91177	0.06035
1031.85218	0.05954
1029.79260	0.05880
1027.73301	0.05799
1025.67343	0.05699
1023.61384	0.05586
1021.55425	0.05473
1019.49467	0.05376
1017.43508	0.05296
1015.37550	0.05219
1013.31591	0.05126
1011.25633	0.05031
1009.19674	0.04954
1007.13716	0.04889
1005.07757	0.04821
1003.01799	0.04754
1000.95840	0.04701
998.89882	0.04645
996.83923	0.04583
994.77965	0.04536
992.72006	0.04502
990.66048	0.04467
988.60089	0.04432
986.54131	0.04397
984.48172	0.04364
982.42214	0.04341
980.36255	0.04324
978.30297	0.04317
976.24338	0.04315
974.18380	0.04312
972.12421	0.04309
970.06463	0.04306
968.00504	0.04320
965.94545	0.04350
963.88587	0.04372
961.82628	0.04373
959.76670	0.04352
957.70711	0.04311
955.64753	0.04273
953.58794	0.04245
951.52836	0.04220
949.46877	0.04201
947.40919	0.04184
945.34960	0.04156
943.29002	0.04120
941.23043	0.04088
939.17085	0.04060
937.11126	0.04044
935.05168	0.04050
932.99209	0.04068
930.93251	0.04077
928.87292	0.04061
926.81334	0.04024
924.75375	0.03980
922.69417	0.03940
920.63458	0.03912
918.57500	0.03891
916.51541	0.03863
914.45582	0.03825
912.39624	0.03790
910.33665	0.03770
908.27707	0.03762
906.21748	0.03759
904.15790	0.03760
902.09831	0.03763
900.03873	0.03757
897.97914	0.03743
895.91956	0.03724
893.85997	0.03705
891.80039	0.03677
889.74080	0.03635
887.68122	0.03598
885.62163	0.03578
883.56205	0.03565
881.50246	0.03552
879.44288	0.03534
877.38329	0.03507
875.32371	0.03479
873.26412	0.03460
871.20454	0.03449
869.14495	0.03431
867.08537	0.03397
865.02578	0.03355
862.96620	0.03323
860.90661	0.03312
858.84702	0.03310
856.78744	0.03298
854.72785	0.03282
852.66827	0.03278
850.60868	0.03275
848.54910	0.03259
846.48951	0.03239
844.42993	0.03224
842.37034	0.03222
840.31076	0.03227
838.25117	0.03220
836.19159	0.03210
834.13200	0.03223
832.07242	0.03260
830.01283	0.03294
827.95325	0.03312
825.89366	0.03313
823.83408	0.03307
821.77449	0.03300
819.71491	0.03284
817.65532	0.03277
815.59574	0.03299
813.53615	0.03329
811.47657	0.03341
809.41698	0.03331
807.35740	0.03319
805.29781	0.03323
803.23822	0.03334
801.17864	0.03337
799.11905	0.03338
797.05947	0.03335
794.99988	0.03337
792.94030	0.03357
790.88071	0.03391
788.82113	0.03429
786.76154	0.03463
784.70196	0.03484
782.64237	0.03500
780.58279	0.03528
778.52320	0.03565
776.46362	0.03605
774.40403	0.03649
772.34445	0.03684
770.28486	0.03706
768.22528	0.03731
766.16569	0.03765
764.10611	0.03792
762.04652	0.03810
759.98694	0.03821
757.92735	0.03832
755.86777	0.03850
753.80818	0.03869
751.74859	0.03887
749.68901	0.03915
747.62942	0.03937
745.56984	0.03934
743.51025	0.03918
741.45067	0.03912
739.39108	0.03916
737.33150	0.03918
735.27191	0.03916
733.21233	0.03926
731.15274	0.03955
729.09316	0.03979
727.03357	0.04001
724.97399	0.04047
722.91440	0.04114
720.85482	0.04195
718.79523	0.04291
716.73565	0.04368
714.67606	0.04437
712.61648	0.04511
710.55689	0.04604
708.49731	0.04724
706.43772	0.04859
704.37814	0.04988
702.31855	0.05090
700.25897	0.05155
698.19938	0.05196
696.13979	0.05220
694.08021	0.05222
692.02062	0.05205
689.96104	0.05200
687.90145	0.05205
685.84187	0.05202
683.78228	0.05209
681.72270	0.05230
679.66311	0.05236
677.60353	0.05239
675.54394	0.05256
673.48436	0.05260
671.42477	0.05289
669.36519	0.05405
667.30560	0.05268
665.24602	0.05313
663.18643	0.05324
661.12685	0.05329
659.06726	0.05351
657.00768	0.05350
654.94809	0.05338
652.88851	0.05357
650.82892	0.05377
648.76934	0.05389
646.70975	0.05419
644.65016	0.05443
642.59058	0.05459
640.53099	0.05471
638.47141	0.05480
636.41182	0.05503
634.35224	0.05534
632.29265	0.05550
630.23307	0.05555
628.17348	0.05559
626.11390	0.05568
624.05431	0.05570
621.99473	0.05559
619.93514	0.05544
617.87556	0.05540
615.81597	0.05533
613.75639	0.05506
611.69680	0.05475
609.63722	0.05450
607.57763	0.05419
605.51805	0.05392
603.45846	0.05390
601.39888	0.05405
599.33929	0.05413
597.27971	0.05406
595.22012	0.05390
593.16054	0.05375
591.10095	0.05369
589.04136	0.05369
586.98178	0.05365
584.92219	0.05360
582.86261	0.05351
580.80302	0.05330
578.74344	0.05307
576.68385	0.05313
574.62427	0.05336
572.56468	0.05340
570.50510	0.05336
568.44551	0.05338
566.38593	0.05336
564.32634	0.05325
562.26676	0.05306
560.20717	0.05285
558.14759	0.05274
556.08800	0.05280
554.02842	0.05293
551.96883	0.05288
549.90925	0.05261
547.84966	0.05239
545.79008	0.05235
543.73049	0.05224
541.67091	0.05187
539.61132	0.05166
537.55173	0.05185
535.49215	0.05198
533.43256	0.05177
531.37298	0.05166
529.31339	0.05181
527.25381	0.05196
525.19422	0.05207
523.13464	0.05211
521.07505	0.05200
519.01547	0.05182
516.95588	0.05160
514.89630	0.05118
512.83671	0.05061
510.77713	0.05008
508.71754	0.04969
506.65796	0.04951
504.59837	0.04935
502.53879	0.04902
500.47920	0.04862
498.41962	0.04817
496.36003	0.04769
494.30045	0.04738
492.24086	0.04723
490.18128	0.04709
488.12169	0.04698
486.06211	0.04693
484.00252	0.04679
481.94293	0.04651
479.88335	0.04616
477.82376	0.04608
475.76418	0.04619
473.70459	0.04594
471.64501	0.04540
469.58542	0.04517
467.52584	0.04527
465.46625	0.04524
463.40667	0.04500
461.34708	0.04496
459.28750	0.04500
457.22791	0.04453
455.16833	0.04365
453.10874	0.04307
451.04916	0.04282
448.98957	0.04255
446.92999	0.04209
444.87040	0.04151
442.81082	0.04104
440.75123	0.04074
438.69165	0.04056
436.63206	0.04041
434.57248	0.04013
432.51289	0.03961
430.45330	0.03904
428.39372	0.03864
426.33413	0.03827
424.27455	0.03779
422.21496	0.03744
420.15538	0.03765
418.09579	0.03802
416.03621	0.03758
413.97662	0.03661
411.91704	0.03603
409.85745	0.03594
407.79787	0.03565
405.73828	0.03493
403.67870	0.03429
401.61911	0.03387
399.55953	0.03340
