3997.65486	0.02584
3995.59527	0.02642
3993.53569	0.02651
3991.47610	0.02605
3989.41652	0.02556
3987.35693	0.02518
3985.29735	0.02509
3983.23776	0.02529
3981.17817	0.02556
3979.11859	0.02578
3977.05900	0.02577
3974.99942	0.02551
3972.93983	0.02543
3970.88025	0.02577
3968.82066	0.02594
3966.76108	0.02545
3964.70149	0.02499
3962.64191	0.02497
3960.58232	0.02499
3958.52274	0.02515
3956.46315	0.02574
3954.40357	0.02631
3952.34398	0.02625
3950.28440	0.02582
3948.22481	0.02540
3946.16523	0.02501
3944.10564	0.02484
3942.04606	0.02499
3939.98647	0.02538
3937.92689	0.02589
3935.86730	0.02614
3933.80772	0.02629
3931.74813	0.02653
3929.68855	0.02618
3927.62896	0.02527
3925.56937	0.02480
3923.50979	0.02497
3921.45020	0.02524
3919.39062	0.02555
3917.33103	0.02591
3915.27145	0.02602
3913.21186	0.02594
3911.15228	0.02591
3909.09269	0.02588
3907.03311	0.02591
3904.97352	0.02620
3902.91394	0.02693
3900.85435	0.02767
3898.79477	0.02743
3896.73518	0.02632
3894.67560	0.02548
3892.61601	0.02535
3890.55643	0.02552
3888.49684	0.02591
3886.43726	0.02648
3884.37767	0.02674
3882.31809	0.02651
3880.25850	0.02629
3878.19892	0.02632
3876.13933	0.02628
3874.07974	0.02600
3872.02016	0.02596
3869.96057	0.02629
3867.90099	0.02643
3865.84140	0.02625
3863.78182	0.02593
3861.72223	0.02565
3859.66265	0.02583
3857.60306	0.02641
3855.54348	0.02674
3853.48389	0.02621
3851.42431	0.02517
3849.36472	0.02473
3847.30514	0.02486
3845.24555	0.02489
3843.18597	0.02476
3841.12638	0.02495
3839.06680	0.02560
3837.00721	0.02642
3834.94763	0.02700
3832.88804	0.02713
3830.82846	0.02666
3828.76887	0.02595
3826.70929	0.02586
3824.64970	0.02641
3822.59012	0.02677
3820.53053	0.02678
3818.47094	0.02683
3816.41136	0.02651
3814.35177	0.02561
3812.29219	0.02502
3810.23260	0.02525
3808.17302	0.02579
3806.11343	0.02571
3804.05385	0.02516
3801.99426	0.02485
3799.93468	0.02477
3797.87509	0.02478
3795.81551	0.02508
3793.75592	0.02582
3791.69634	0.02656
3789.63675	0.02653
3787.57717	0.02570
3785.51758	0.02495
3783.45800	0.02515
3781.39841	0.02614
3779.33883	0.02682
3777.27924	0.02641
3775.21966	0.02565
3773.16007	0.02567
3771.10049	0.02622
3769.04090	0.02643
3766.98132	0.02618
3764.92173	0.02573
3762.86214	0.02544
3760.80256	0.02541
3758.74297	0.02518
3756.68339	0.02471
3754.62380	0.02450
3752.56422	0.02475
3750.50463	0.02511
3748.44505	0.02500
3746.38546	0.02466
3744.32588	0.02446
3742.26629	0.02441
3740.20671	0.02458
3738.14712	0.02496
3736.08754	0.02528
3734.02795	0.02535
3731.96837	0.02531
3729.90878	0.02513
3727.84920	0.02462
3725.78961	0.02388
3723.73003	0.02353
3721.67044	0.02372
3719.61086	0.02399
3717.55127	0.02420
3715.49169	0.02459
3713.43210	0.02512
3711.37251	0.02530
3709.31293	0.02503
3707.25334	0.02481
3705.19376	0.02510
3703.13417	0.02574
3701.07459	0.02602
3699.01500	0.02554
3696.95542	0.02457
3694.89583	0.02368
3692.83625	0.02343
3690.77666	0.02394
3688.71708	0.02465
3686.65749	0.02485
3684.59791	0.02445
3682.53832	0.02388
3680.47874	0.02389
3678.41915	0.02459
3676.35957	0.02510
3674.29998	0.02498
3672.24040	0.02506
3670.18081	0.02534
3668.12123	0.02489
3666.06164	0.02396
3664.00206	0.02369
3661.94247	0.02433
3659.88289	0.02533
3657.82330	0.02599
3655.76371	0.02577
3653.70413	0.02503
3651.64454	0.02453
3649.58496	0.02434
3647.52537	0.02428
3645.46579	0.02434
3643.40620	0.02455
3641.34662	0.02467
3639.28703	0.02464
3637.22745	0.02482
3635.16786	0.02516
3633.10828	0.02527
3631.04869	0.02522
3628.98911	0.02521
3626.92952	0.02512
3624.86994	0.02505
3622.81035	0.02522
3620.75077	0.02547
3618.69118	0.02535
3616.63160	0.02494
3614.57201	0.02485
3612.51243	0.02504
3610.45284	0.02488
3608.39326	0.02455
3606.33367	0.02467
3604.27408	0.02505
3602.21450	0.02524
3600.15491	0.02533
3598.09533	0.02558
3596.03574	0.02595
3593.97616	0.02606
3591.91657	0.02579
3589.85699	0.02560
3587.79740	0.02561
3585.73782	0.02549
3583.67823	0.02539
3581.61865	0.02575
3579.55906	0.02621
3577.49948	0.02613
3575.43989	0.02564
3573.38031	0.02523
3571.32072	0.02523
3569.26114	0.02555
3567.20155	0.02582
3565.14197	0.02584
3563.08238	0.02567
3561.02280	0.02533
3558.96321	0.02498
3556.90363	0.02495
3554.84404	0.02515
3552.78446	0.02528
3550.72487	0.02544
3548.66528	0.02574
3546.60570	0.02572
3544.54611	0.02536
3542.48653	0.02528
3540.42694	0.02549
3538.36736	0.02571
3536.30777	0.02594
3534.24819	0.02605
3532.18860	0.02594
3530.12902	0.02599
3528.06943	0.02628
3526.00985	0.02637
3523.95026	0.02645
3521.89068	0.02680
3519.83109	0.02699
3517.77151	0.02659
3515.71192	0.02592
3513.65234	0.02570
3511.59275	0.02597
3509.53317	0.02621
3507.47358	0.02641
3505.41400	0.02663
3503.35441	0.02678
3501.29483	0.02689
3499.23524	0.02690
3497.17565	0.02688
3495.11607	0.02699
3493.05648	0.02710
3490.99690	0.02719
3488.93731	0.02711
3486.87773	0.02671
3484.81814	0.02660
3482.75856	0.02717
3480.69897	0.02751
3478.63939	0.02703
3476.57980	0.02664
3474.52022	0.02692
3472.46063	0.02709
3470.40105	0.02681
3468.34146	0.02694
3466.28188	0.02733
3464.22229	0.02696
3462.16271	0.02615
3460.10312	0.02594
3458.04354	0.02627
3455.98395	0.02679
3453.92437	0.02737
3451.86478	0.02784
3449.80520	0.02810
3447.74561	0.02806
3445.68603	0.02764
3443.62644	0.02733
3441.56685	0.02757
3439.50727	0.02780
3437.44768	0.02730
3435.38810	0.02663
3433.32851	0.02675
3431.26893	0.02749
3429.20934	0.02792
3427.14976	0.02796
3425.09017	0.02814
3423.03059	0.02842
3420.97100	0.02855
3418.91142	0.02836
3416.85183	0.02789
3414.79225	0.02759
3412.73266	0.02770
3410.67308	0.02795
3408.61349	0.02793
3406.55391	0.02781
3404.49432	0.02817
3402.43474	0.02882
3400.37515	0.02920
3398.31557	0.02937
3396.25598	0.02950
3394.19640	0.02944
3392.13681	0.02917
3390.07723	0.02887
3388.01764	0.02880
3385.95805	0.02912
3383.89847	0.02945
3381.83888	0.02937
3379.77930	0.02924
3377.71971	0.02938
3375.66013	0.02948
3373.60054	0.02941
3371.54096	0.02954
3369.48137	0.02998
3367.42179	0.03040
3365.36220	0.03061
3363.30262	0.03060
3361.24303	0.03050
3359.18345	0.03053
3357.12386	0.03069
3355.06428	0.03099
3353.00469	0.03116
3350.94511	0.03094
3348.88552	0.03067
3346.82594	0.03055
3344.76635	0.03053
3342.70677	0.03074
3340.64718	0.03116
3338.58760	0.03158
3336.52801	0.03203
3334.46842	0.03257
3332.40884	0.03298
3330.34925	0.03309
3328.28967	0.03310
3326.23008	0.03348
3324.17050	0.03403
3322.11091	0.03411
3320.05133	0.03391
3317.99174	0.03379
3315.93216	0.03387
3313.87257	0.03421
3311.81299	0.03444
3309.75340	0.03460
3307.69382	0.03517
3305.63423	0.03573
3303.57465	0.03585
3301.51506	0.03584
3299.45548	0.03604
3297.39589	0.03660
3295.33631	0.03716
3293.27672	0.03747
3291.21714	0.03779
3289.15755	0.03808
3287.09797	0.03803
3285.03838	0.03794
3282.97880	0.03828
3280.91921	0.03865
3278.85962	0.03847
3276.80004	0.03797
3274.74045	0.03756
3272.68087	0.03740
3270.62128	0.03745
3268.56170	0.03765
3266.50211	0.03750
3264.44253	0.03662
3262.38294	0.03578
3260.32336	0.03586
3258.26377	0.03645
3256.20419	0.03670
3254.14460	0.03621
3252.08502	0.03541
3250.02543	0.03516
3247.96585	0.03526
3245.90626	0.03524
3243.84668	0.03522
3241.78709	0.03520
3239.72751	0.03500
3237.66792	0.03481
3235.60834	0.03482
3233.54875	0.03491
3231.48917	0.03490
3229.42958	0.03473
3227.36999	0.03453
3225.31041	0.03432
3223.25082	0.03388
3221.19124	0.03339
3219.13165	0.03301
3217.07207	0.03274
3215.01248	0.03277
3212.95290	0.03286
3210.89331	0.03278
3208.83373	0.03288
3206.77414	0.03316
3204.71456	0.03308
3202.65497	0.03264
3200.59539	0.03229
3198.53580	0.03227
3196.47622	0.03240
3194.41663	0.03228
3192.35705	0.03182
3190.29746	0.03139
3188.23788	0.03130
3186.17829	0.03122
3184.11871	0.03093
3182.05912	0.03071
3179.99954	0.03066
3177.93995	0.03065
3175.88037	0.03073
3173.82078	0.03088
3171.76119	0.03090
3169.70161	0.03063
3167.64202	0.03008
3165.58244	0.02939
3163.52285	0.02901
3161.46327	0.02931
3159.40368	0.02974
3157.34410	0.02974
3155.28451	0.02943
3153.22493	0.02930
3151.16534	0.02956
3149.10576	0.02982
3147.04617	0.02988
3144.98659	0.02981
3142.92700	0.02971
3140.86742	0.02982
3138.80783	0.02999
3136.74825	0.02975
3134.68866	0.02920
3132.62908	0.02872
3130.56949	0.02853
3128.50991	0.02863
3126.45032	0.02881
3124.39074	0.02892
3122.33115	0.02896
3120.27156	0.02883
3118.21198	0.02854
3116.15239	0.02843
3114.09281	0.02869
3112.03322	0.02903
3109.97364	0.02911
3107.91405	0.02885
3105.85447	0.02844
3103.79488	0.02841
3101.73530	0.02888
3099.67571	0.02929
3097.61613	0.02927
3095.55654	0.02905
3093.49696	0.02890
3091.43737	0.02866
3089.37779	0.02821
3087.31820	0.02798
3085.25862	0.02824
3083.19903	0.02862
3081.13945	0.02888
3079.07986	0.02898
3077.02028	0.02887
3074.96069	0.02886
3072.90111	0.02915
3070.84152	0.02950
3068.78194	0.02969
3066.72235	0.02966
3064.66276	0.02947
3062.60318	0.02926
3060.54359	0.02890
3058.48401	0.02843
3056.42442	0.02833
3054.36484	0.02856
3052.30525	0.02873
3050.24567	0.02882
3048.18608	0.02893
3046.12650	0.02896
3044.06691	0.02889
3042.00733	0.02886
3039.94774	0.02874
3037.88816	0.02843
3035.82857	0.02823
3033.76899	0.02812
3031.70940	0.02798
3029.64982	0.02796
3027.59023	0.02794
3025.53065	0.02789
3023.47106	0.02803
3021.41148	0.02812
3019.35189	0.02788
3017.29231	0.02749
3015.23272	0.02716
3013.17313	0.02702
3011.11355	0.02705
3009.05396	0.02704
3006.99438	0.02707
3004.93479	0.02721
3002.87521	0.02719
3000.81562	0.02702
2998.75604	0.02708
2996.69645	0.02745
2994.63687	0.02773
2992.57728	0.02752
2990.51770	0.02725
2988.45811	0.02728
2986.39853	0.02723
2984.33894	0.02720
2982.27936	0.02750
2980.21977	0.02787
2978.16019	0.02822
2976.10060	0.02839
2974.04102	0.02824
2971.98143	0.02806
2969.92185	0.02795
2967.86226	0.02779
2965.80268	0.02779
2963.74309	0.02803
2961.68351	0.02831
2959.62392	0.02831
2957.56433	0.02817
2955.50475	0.02824
2953.44516	0.02827
2951.38558	0.02818
2949.32599	0.02808
2947.26641	0.02795
2945.20682	0.02785
2943.14724	0.02801
2941.08765	0.02832
2939.02807	0.02852
2936.96848	0.02864
2934.90890	0.02870
2932.84931	0.02888
2930.78973	0.02907
2928.73014	0.02894
2926.67056	0.02867
2924.61097	0.02851
2922.55139	0.02853
2920.49180	0.02868
2918.43222	0.02869
2916.37263	0.02849
2914.31305	0.02846
2912.25346	0.02873
2910.19388	0.02876
2908.13429	0.02845
2906.07471	0.02818
2904.01512	0.02789
2901.95553	0.02767
2899.89595	0.02786
2897.83636	0.02807
2895.77678	0.02776
2893.71719	0.02730
2891.65761	0.02735
2889.59802	0.02768
2887.53844	0.02782
2885.47885	0.02805
2883.41927	0.02837
2881.35968	0.02837
2879.30010	0.02821
2877.24051	0.02814
2875.18093	0.02813
2873.12134	0.02817
2871.06176	0.02818
2869.00217	0.02800
2866.94259	0.02778
2864.88300	0.02781
2862.82342	0.02787
2860.76383	0.02766
2858.70425	0.02747
2856.64466	0.02753
2854.58508	0.02751
2852.52549	0.02736
2850.46590	0.02747
2848.40632	0.02778
2846.34673	0.02773
2844.28715	0.02739
2842.22756	0.02714
2840.16798	0.02690
2838.10839	0.02667
2836.04881	0.02668
2833.98922	0.02689
2831.92964	0.02701
2829.87005	0.02677
2827.81047	0.02618
2825.75088	0.02567
2823.69130	0.02572
2821.63171	0.02604
2819.57213	0.02608
2817.51254	0.02597
2815.45296	0.02597
2813.39337	0.02606
2811.33379	0.02623
2809.27420	0.02644
2807.21462	0.02639
2805.15503	0.02602
2803.09545	0.02580
2801.03586	0.02589
2798.97628	0.02603
2796.91669	0.02608
2794.85710	0.02599
2792.79752	0.02584
2790.73793	0.02583
2788.67835	0.02588
2786.61876	0.02581
2784.55918	0.02566
2782.49959	0.02550
2780.44001	0.02543
2778.38042	0.02547
2776.32084	0.02567
2774.26125	0.02589
2772.20167	0.02572
2770.14208	0.02533
2768.08250	0.02513
2766.02291	0.02500
2763.96333	0.02496
2761.90374	0.02524
2759.84416	0.02554
2757.78457	0.02543
2755.72499	0.02509
2753.66540	0.02501
2751.60582	0.02530
2749.54623	0.02561
2747.48665	0.02562
2745.42706	0.02545
2743.36747	0.02532
2741.30789	0.02534
2739.24830	0.02539
2737.18872	0.02528
2735.12913	0.02522
2733.06955	0.02538
2731.00996	0.02545
2728.95038	0.02536
2726.89079	0.02530
2724.83121	0.02536
2722.77162	0.02545
2720.71204	0.02535
2718.65245	0.02512
2716.59287	0.02505
2714.53328	0.02500
2712.47370	0.02492
2710.41411	0.02500
2708.35453	0.02505
2706.29494	0.02505
2704.23536	0.02508
2702.17577	0.02508
2700.11619	0.02503
2698.05660	0.02510
2695.99702	0.02531
2693.93743	0.02528
2691.87785	0.02497
2689.81826	0.02463
2687.75867	0.02439
2685.69909	0.02434
2683.63950	0.02448
2681.57992	0.02469
2679.52033	0.02486
2677.46075	0.02485
2675.40116	0.02468
2673.34158	0.02461
2671.28199	0.02468
2669.22241	0.02473
2667.16282	0.02485
2665.10324	0.02494
2663.04365	0.02482
2660.98407	0.02484
2658.92448	0.02518
2656.86490	0.02524
2654.80531	0.02499
2652.74573	0.02503
2650.68614	0.02530
2648.62656	0.02531
2646.56697	0.02510
2644.50739	0.02498
2642.44780	0.02508
2640.38822	0.02524
2638.32863	0.02530
2636.26904	0.02531
2634.20946	0.02527
2632.14987	0.02515
2630.09029	0.02491
2628.03070	0.02470
2625.97112	0.02468
2623.91153	0.02476
2621.85195	0.02484
2619.79236	0.02472
2617.73278	0.02437
2615.67319	0.02432
2613.61361	0.02458
2611.55402	0.02453
2609.49444	0.02421
2607.43485	0.02418
2605.37527	0.02450
2603.31568	0.02449
2601.25610	0.02404
2599.19651	0.02377
2597.13693	0.02394
2595.07734	0.02452
2593.01776	0.02507
2590.95817	0.02512
2588.89859	0.02483
2586.83900	0.02446
2584.77942	0.02412
2582.71983	0.02378
2580.66024	0.02352
2578.60066	0.02354
2576.54107	0.02365
2574.48149	0.02374
2572.42190	0.02417
2570.36232	0.02467
2568.30273	0.02455
2566.24315	0.02407
2564.18356	0.02377
2562.12398	0.02373
2560.06439	0.02382
2558.00481	0.02384
2555.94522	0.02379
2553.88564	0.02364
2551.82605	0.02358
2549.76647	0.02366
2547.70688	0.02368
2545.64730	0.02372
2543.58771	0.02377
2541.52813	0.02387
2539.46854	0.02385
2537.40896	0.02346
2535.34937	0.02282
2533.28979	0.02264
2531.23020	0.02298
2529.17062	0.02306
2527.11103	0.02297
2525.05144	0.02309
2522.99186	0.02314
2520.93227	0.02315
2518.87269	0.02323
2516.81310	0.02333
2514.75352	0.02335
2512.69393	0.02332
2510.63435	0.02334
2508.57476	0.02332
2506.51518	0.02305
2504.45559	0.02270
2502.39601	0.02272
2500.33642	0.02312
2498.27684	0.02326
2496.21725	0.02297
2494.15767	0.02273
2492.09808	0.02278
2490.03850	0.02301
2487.97891	0.02315
2485.91933	0.02326
2483.85974	0.02349
2481.80016	0.02331
2479.74057	0.02278
2477.68099	0.02257
2475.62140	0.02271
2473.56181	0.02283
2471.50223	0.02259
2469.44264	0.02236
2467.38306	0.02271
2465.32347	0.02321
2463.26389	0.02330
2461.20430	0.02306
2459.14472	0.02285
2457.08513	0.02290
2455.02555	0.02313
2452.96596	0.02325
2450.90638	0.02313
2448.84679	0.02297
2446.78721	0.02287
2444.72762	0.02278
2442.66804	0.02259
2440.60845	0.02247
2438.54887	0.02256
2436.48928	0.02266
2434.42970	0.02262
2432.37011	0.02255
2430.31053	0.02250
2428.25094	0.02253
2426.19136	0.02255
2424.13177	0.02260
2422.07219	0.02279
2420.01260	0.02289
2417.95301	0.02259
2415.89343	0.02223
2413.83384	0.02225
2411.77426	0.02247
2409.71467	0.02262
2407.65509	0.02249
2405.59550	0.02212
2403.53592	0.02190
2401.47633	0.02204
2399.41675	0.02205
2397.35716	0.02208
2395.29758	0.02231
2393.23799	0.02265
2391.17841	0.02278
2389.11882	0.02253
2387.05924	0.02217
2384.99965	0.02209
2382.94007	0.02235
2380.88048	0.02249
2378.82090	0.02232
2376.76131	0.02227
2374.70173	0.02237
2372.64214	0.02200
2370.58256	0.02120
2368.52297	0.02061
2366.46338	0.02035
2364.40380	0.02022
2362.34421	0.02009
2360.28463	0.02004
2358.22504	0.02022
2356.16546	0.02042
2354.10587	0.02088
2352.04629	0.02197
2349.98670	0.02282
2347.92712	0.02272
2345.86753	0.02212
2343.80795	0.02180
2341.74836	0.02189
2339.68878	0.02199
2337.62919	0.02171
2335.56961	0.02140
2333.51002	0.02141
2331.45044	0.02147
2329.39085	0.02165
2327.33127	0.02257
2325.27168	0.02374
2323.21210	0.02385
2321.15251	0.02323
2319.09293	0.02303
2317.03334	0.02297
2314.97376	0.02244
2312.91417	0.02195
2310.85458	0.02198
2308.79500	0.02210
2306.73541	0.02208
2304.67583	0.02212
2302.61624	0.02221
2300.55666	0.02238
2298.49707	0.02264
2296.43749	0.02283
2294.37790	0.02313
2292.31832	0.02370
2290.25873	0.02407
2288.19915	0.02381
2286.13956	0.02306
2284.07998	0.02246
2282.02039	0.02219
2279.96081	0.02178
2277.90122	0.02161
2275.84164	0.02201
2273.78205	0.02228
2271.72247	0.02207
2269.66288	0.02186
2267.60330	0.02200
2265.54371	0.02232
2263.48413	0.02244
2261.42454	0.02213
2259.36495	0.02170
2257.30537	0.02161
2255.24578	0.02156
2253.18620	0.02155
2251.12661	0.02172
2249.06703	0.02148
2247.00744	0.02132
2244.94786	0.02187
2242.88827	0.02197
2240.82869	0.02133
2238.76910	0.02144
2236.70952	0.02188
2234.64993	0.02137
2232.59035	0.02081
2230.53076	0.02094
2228.47118	0.02151
2226.41159	0.02183
2224.35201	0.02110
2222.29242	0.01972
2220.23284	0.01927
2218.17325	0.02020
2216.11367	0.02146
2214.05408	0.02190
2211.99450	0.02098
2209.93491	0.01977
2207.87533	0.01950
2205.81574	0.02012
2203.75615	0.02103
2201.69657	0.02149
2199.63698	0.02117
2197.57740	0.02021
2195.51781	0.01924
2193.45823	0.01889
2191.39864	0.01896
2189.33906	0.01886
2187.27947	0.01865
2185.21989	0.01900
2183.16030	0.01926
2181.10072	0.01862
2179.04113	0.01778
2176.98155	0.01737
2174.92196	0.01749
2172.86238	0.01771
2170.80279	0.01802
2168.74321	0.01834
2166.68362	0.01827
2164.62404	0.01864
2162.56445	0.02024
2160.50487	0.02120
2158.44528	0.01953
2156.38570	0.01758
2154.32611	0.01767
2152.26652	0.01868
2150.20694	0.01890
2148.14735	0.01815
2146.08777	0.01791
2144.02818	0.01875
2141.96860	0.01923
2139.90901	0.01886
2137.84943	0.01851
2135.78984	0.01855
2133.73026	0.01879
2131.67067	0.01895
2129.61109	0.01890
2127.55150	0.01872
2125.49192	0.01871
2123.43233	0.01904
2121.37275	0.01954
2119.31316	0.01973
2117.25358	0.01948
2115.19399	0.01973
2113.13441	0.02060
2111.07482	0.02120
2109.01524	0.02142
2106.95565	0.02124
2104.89607	0.02051
2102.83648	0.02019
2100.77690	0.02097
2098.71731	0.02192
2096.65772	0.02159
2094.59814	0.02052
2092.53855	0.02009
2090.47897	0.02024
2088.41938	0.02038
2086.35980	0.02072
2084.30021	0.02154
2082.24063	0.02243
2080.18104	0.02284
2078.12146	0.02260
2076.06187	0.02181
2074.00229	0.02087
2071.94270	0.02035
2069.88312	0.02048
2067.82353	0.02051
2065.76395	0.01987
2063.70436	0.01959
2061.64478	0.02004
2059.58519	0.02010
2057.52561	0.01980
2055.46602	0.01971
2053.40644	0.01975
2051.34685	0.01944
2049.28727	0.01870
2047.22768	0.01867
2045.16810	0.01965
2043.10851	0.02065
2041.04892	0.02125
2038.98934	0.02067
2036.92975	0.01879
2034.87017	0.01788
2032.81058	0.01837
2030.75100	0.01830
2028.69141	0.01743
2026.63183	0.01719
2024.57224	0.01785
2022.51266	0.01777
2020.45307	0.01696
2018.39349	0.01712
2016.33390	0.01844
2014.27432	0.01926
2012.21473	0.01875
2010.15515	0.01823
2008.09556	0.01798
2006.03598	0.01764
2003.97639	0.01826
2001.91681	0.01923
1999.85722	0.01906
1997.79764	0.01839
1995.73805	0.01815
1993.67847	0.01869
1991.61888	0.01960
1989.55929	0.02011
1987.49971	0.02045
1985.44012	0.02078
1983.38054	0.02075
1981.32095	0.02067
1979.26137	0.02042
1977.20178	0.01951
1975.14220	0.01831
1973.08261	0.01751
1971.02303	0.01721
1968.96344	0.01744
1966.90386	0.01797
1964.84427	0.01804
1962.78469	0.01769
1960.72510	0.01782
1958.66552	0.01835
1956.60593	0.01844
1954.54635	0.01832
1952.48676	0.01845
1950.42718	0.01854
1948.36759	0.01860
1946.30801	0.01863
1944.24842	0.01867
1942.18884	0.01885
1940.12925	0.01896
1938.06967	0.01901
1936.01008	0.01904
1933.95049	0.01892
1931.89091	0.01860
1929.83132	0.01833
1927.77174	0.01843
1925.71215	0.01871
1923.65257	0.01886
1921.59298	0.01913
1919.53340	0.01940
1917.47381	0.01906
1915.41423	0.01864
1913.35464	0.01887
1911.29506	0.01928
1909.23547	0.01935
1907.17589	0.01913
1905.11630	0.01874
1903.05672	0.01846
1900.99713	0.01852
1898.93755	0.01855
1896.87796	0.01842
1894.81838	0.01857
1892.75879	0.01903
1890.69921	0.01939
1888.63962	0.01946
1886.58004	0.01934
1884.52045	0.01908
1882.46086	0.01881
1880.40128	0.01881
1878.34169	0.01904
1876.28211	0.01911
1874.22252	0.01897
1872.16294	0.01890
1870.10335	0.01909
1868.04377	0.01936
1865.98418	0.01943
1863.92460	0.01942
1861.86501	0.01939
1859.80543	0.01916
1857.74584	0.01896
1855.68626	0.01899
1853.62667	0.01892
1851.56709	0.01869
1849.50750	0.01870
1847.44792	0.01909
1845.38833	0.01939
1843.32875	0.01931
1841.26916	0.01909
1839.20958	0.01889
1837.14999	0.01877
1835.09041	0.01871
1833.03082	0.01880
1830.97124	0.01905
1828.91165	0.01926
1826.85206	0.01944
1824.79248	0.01956
1822.73289	0.01945
1820.67331	0.01920
1818.61372	0.01899
1816.55414	0.01883
1814.49455	0.01883
1812.43497	0.01894
1810.37538	0.01902
1808.31580	0.01899
1806.25621	0.01893
1804.19663	0.01899
1802.13704	0.01911
1800.07746	0.01922
1798.01787	0.01939
1795.95829	0.01957
1793.89870	0.01961
1791.83912	0.01949
1789.77953	0.01932
1787.71995	0.01927
1785.66036	0.01934
1783.60078	0.01931
1781.54119	0.01922
1779.48161	0.01924
1777.42202	0.01934
1775.36243	0.01943
1773.30285	0.01950
1771.24326	0.01955
1769.18368	0.01944
1767.12409	0.01915
1765.06451	0.01888
1763.00492	0.01880
1760.94534	0.01884
1758.88575	0.01888
1756.82617	0.01902
1754.76658	0.01926
1752.70700	0.01945
1750.64741	0.01958
1748.58783	0.01966
1746.52824	0.01956
1744.46866	0.01931
1742.40907	0.01914
1740.34949	0.01917
1738.28990	0.01934
1736.23032	0.01955
1734.17073	0.01968
1732.11115	0.01961
1730.05156	0.01947
1727.99198	0.01936
1725.93239	0.01929
1723.87281	0.01929
1721.81322	0.01946
1719.75363	0.01978
1717.69405	0.02009
1715.63446	0.02009
1713.57488	0.01986
1711.51529	0.01982
1709.45571	0.02020
1707.39612	0.02096
1705.33654	0.02185
1703.27695	0.02267
1701.21737	0.02346
1699.15778	0.02411
1697.09820	0.02439
1695.03861	0.02436
1692.97903	0.02432
1690.91944	0.02452
1688.85986	0.02484
1686.80027	0.02526
1684.74069	0.02581
1682.68110	0.02625
1680.62152	0.02649
1678.56193	0.02682
1676.50235	0.02738
1674.44276	0.02799
1672.38318	0.02855
1670.32359	0.02914
1668.26401	0.02967
1666.20442	0.03000
1664.14483	0.03027
1662.08525	0.03062
1660.02566	0.03102
1657.96608	0.03152
1655.90649	0.03216
1653.84691	0.03279
1651.78732	0.03311
1649.72774	0.03327
1647.66815	0.03365
1645.60857	0.03417
1643.54898	0.03446
1641.48940	0.03463
1639.42981	0.03492
1637.37023	0.03539
1635.31064	0.03586
1633.25106	0.03620
1631.19147	0.03645
1629.13189	0.03672
1627.07230	0.03690
1625.01272	0.03695
1622.95313	0.03684
1620.89355	0.03654
1618.83396	0.03605
1616.77438	0.03540
1614.71479	0.03474
1612.65520	0.03421
1610.59562	0.03366
1608.53603	0.03293
1606.47645	0.03209
1604.41686	0.03131
1602.35728	0.03070
1600.29769	0.03023
1598.23811	0.02975
1596.17852	0.02922
1594.11894	0.02871
1592.05935	0.02828
1589.99977	0.02785
1587.94018	0.02740
1585.88060	0.02706
1583.82101	0.02691
1581.76143	0.02684
1579.70184	0.02686
1577.64226	0.02702
1575.58267	0.02719
1573.52309	0.02721
1571.46350	0.02724
1569.40392	0.02739
1567.34433	0.02756
1565.28475	0.02774
1563.22516	0.02804
1561.16558	0.02857
1559.10599	0.02918
1557.04640	0.02947
1554.98682	0.02960
1552.92723	0.02990
1550.86765	0.03031
1548.80806	0.03067
1546.74848	0.03102
1544.68889	0.03143
1542.62931	0.03191
1540.56972	0.03239
1538.51014	0.03269
1536.45055	0.03290
1534.39097	0.03317
1532.33138	0.03329
1530.27180	0.03322
1528.21221	0.03327
1526.15263	0.03350
1524.09304	0.03374
1522.03346	0.03397
1519.97387	0.03419
1517.91429	0.03438
1515.85470	0.03446
1513.79512	0.03445
1511.73553	0.03436
1509.67595	0.03414
1507.61636	0.03377
1505.55677	0.03334
1503.49719	0.03301
1501.43760	0.03282
1499.37802	0.03260
1497.31843	0.03215
1495.25885	0.03157
1493.19926	0.03111
1491.13968	0.03081
1489.08009	0.03042
1487.02051	0.02980
1484.96092	0.02916
1482.90134	0.02871
1480.84175	0.02847
1478.78217	0.02839
1476.72258	0.02831
1474.66300	0.02816
1472.60341	0.02800
1470.54383	0.02786
1468.48424	0.02778
1466.42466	0.02778
1464.36507	0.02781
1462.30549	0.02785
1460.24590	0.02798
1458.18632	0.02822
1456.12673	0.02839
1454.06715	0.02840
1452.00756	0.02846
1449.94797	0.02867
1447.88839	0.02885
1445.82880	0.02887
1443.76922	0.02886
1441.70963	0.02888
1439.65005	0.02884
1437.59046	0.02862
1435.53088	0.02827
1433.47129	0.02797
1431.41171	0.02775
1429.35212	0.02754
1427.29254	0.02735
1425.23295	0.02726
1423.17337	0.02733
1421.11378	0.02748
1419.05420	0.02756
1416.99461	0.02753
1414.93503	0.02749
1412.87544	0.02746
1410.81586	0.02744
1408.75627	0.02743
1406.69669	0.02741
1404.63710	0.02739
1402.57752	0.02741
1400.51793	0.02749
1398.45834	0.02758
1396.39876	0.02753
1394.33917	0.02733
1392.27959	0.02713
1390.22000	0.02705
1388.16042	0.02704
1386.10083	0.02700
1384.04125	0.02697
1381.98166	0.02700
1379.92208	0.02704
1377.86249	0.02705
1375.80291	0.02704
1373.74332	0.02707
1371.68374	0.02707
1369.62415	0.02705
1367.56457	0.02698
1365.50498	0.02692
1363.44540	0.02689
1361.38581	0.02680
1359.32623	0.02662
1357.26664	0.02649
1355.20706	0.02640
1353.14747	0.02628
1351.08789	0.02618
1349.02830	0.02622
1346.96872	0.02641
1344.90913	0.02670
1342.84954	0.02695
1340.78996	0.02698
1338.73037	0.02678
1336.67079	0.02654
1334.61120	0.02641
1332.55162	0.02631
1330.49203	0.02618
1328.43245	0.02605
1326.37286	0.02594
1324.31328	0.02587
1322.25369	0.02583
1320.19411	0.02579
1318.13452	0.02581
1316.07494	0.02588
1314.01535	0.02592
1311.95577	0.02589
1309.89618	0.02577
1307.83660	0.02560
1305.77701	0.02550
1303.71743	0.02547
1301.65784	0.02543
1299.59826	0.02536
1297.53867	0.02529
1295.47909	0.02527
1293.41950	0.02528
1291.35991	0.02528
1289.30033	0.02525
1287.24074	0.02532
1285.18116	0.02550
1283.12157	0.02568
1281.06199	0.02576
1279.00240	0.02576
1276.94282	0.02576
1274.88323	0.02583
1272.82365	0.02589
1270.76406	0.02586
1268.70448	0.02579
1266.64489	0.02581
1264.58531	0.02592
1262.52572	0.02602
1260.46614	0.02613
1258.40655	0.02624
1256.34697	0.02629
1254.28738	0.02626
1252.22780	0.02624
1250.16821	0.02631
1248.10863	0.02646
1246.04904	0.02666
1243.98946	0.02687
1241.92987	0.02701
1239.87029	0.02708
1237.81070	0.02717
1235.75111	0.02731
1233.69153	0.02740
1231.63194	0.02735
1229.57236	0.02729
1227.51277	0.02731
1225.45319	0.02734
1223.39360	0.02723
1221.33402	0.02705
1219.27443	0.02691
1217.21485	0.02681
1215.15526	0.02662
1213.09568	0.02632
1211.03609	0.02604
1208.97651	0.02585
1206.91692	0.02578
1204.85734	0.02571
1202.79775	0.02553
1200.73817	0.02532
1198.67858	0.02522
1196.61900	0.02515
1194.55941	0.02502
1192.49983	0.02487
1190.44024	0.02474
1188.38066	0.02466
1186.32107	0.02461
1184.26149	0.02458
1182.20190	0.02458
1180.14231	0.02462
1178.08273	0.02471
1176.02314	0.02476
1173.96356	0.02473
1171.90397	0.02472
1169.84439	0.02478
1167.78480	0.02488
1165.72522	0.02492
1163.66563	0.02488
1161.60605	0.02490
1159.54646	0.02496
1157.48688	0.02491
1155.42729	0.02478
1153.36771	0.02474
1151.30812	0.02479
1149.24854	0.02481
1147.18895	0.02480
1145.12937	0.02475
1143.06978	0.02456
1141.01020	0.02441
1138.95061	0.02441
1136.89103	0.02439
1134.83144	0.02432
1132.77186	0.02431
1130.71227	0.02437
1128.65268	0.02442
1126.59310	0.02450
1124.53351	0.02469
1122.47393	0.02487
1120.41434	0.02499
1118.35476	0.02510
1116.29517	0.02516
1114.23559	0.02523
1112.17600	0.02529
1110.11642	0.02531
1108.05683	0.02541
1105.99725	0.02562
1103.93766	0.02579
1101.87808	0.02585
1099.81849	0.02590
1097.75891	0.02596
1095.69932	0.02592
1093.63974	0.02576
1091.58015	0.02558
1089.52057	0.02542
1087.46098	0.02534
1085.40140	0.02538
1083.34181	0.02539
1081.28223	0.02531
1079.22264	0.02524
1077.16306	0.02519
1075.10347	0.02515
1073.04388	0.02516
1070.98430	0.02520
1068.92471	0.02522
1066.86513	0.02518
1064.80554	0.02514
1062.74596	0.02519
1060.68637	0.02534
1058.62679	0.02546
1056.56720	0.02546
1054.50762	0.02539
1052.44803	0.02530
1050.38845	0.02519
1048.32886	0.02511
1046.26928	0.02504
1044.20969	0.02499
1042.15011	0.02503
1040.09052	0.02512
1038.03094	0.02511
1035.97135	0.02494
1033.91177	0.02474
1031.85218	0.02464
1029.79260	0.02464
1027.73301	0.02465
1025.67343	0.02464
1023.61384	0.02457
1021.55425	0.02454
1019.49467	0.02450
1017.43508	0.02437
1015.37550	0.02428
1013.31591	0.02434
1011.25633	0.02433
1009.19674	0.02420
1007.13716	0.02417
1005.07757	0.02417
1003.01799	0.02406
1000.95840	0.02393
998.89882	0.02385
996.83923	0.02383
994.77965	0.02383
992.72006	0.02375
990.66048	0.02360
988.60089	0.02349
986.54131	0.02347
984.48172	0.02345
982.42214	0.02339
980.36255	0.02338
978.30297	0.02340
976.24338	0.02334
974.18380	0.02328
972.12421	0.02330
970.06463	0.02334
968.00504	0.02337
965.94545	0.02352
963.88587	0.02372
961.82628	0.02378
959.76670	0.02368
957.70711	0.02356
955.64753	0.02343
953.58794	0.02331
951.52836	0.02323
949.46877	0.02317
947.40919	0.02317
945.34960	0.02322
943.29002	0.02323
941.23043	0.02321
939.17085	0.02320
937.11126	0.02318
935.05168	0.02308
932.99209	0.02291
930.93251	0.02276
928.87292	0.02272
926.81334	0.02273
924.75375	0.02271
922.69417	0.02266
920.63458	0.02266
918.57500	0.02268
916.51541	0.02266
914.45582	0.02265
912.39624	0.02261
910.33665	0.02249
908.27707	0.02237
906.21748	0.02230
904.15790	0.02228
902.09831	0.02227
900.03873	0.02226
897.97914	0.02228
895.91956	0.02232
893.85997	0.02238
891.80039	0.02239
889.74080	0.02233
887.68122	0.02227
885.62163	0.02233
883.56205	0.02253
881.50246	0.02272
879.44288	0.02275
877.38329	0.02263
875.32371	0.02253
873.26412	0.02251
871.20454	0.02245
869.14495	0.02237
867.08537	0.02236
865.02578	0.02231
862.96620	0.02214
860.90661	0.02203
858.84702	0.02213
856.78744	0.02224
854.72785	0.02219
852.66827	0.02217
850.60868	0.02223
848.54910	0.02233
846.48951	0.02257
844.42993	0.02280
842.37034	0.02291
840.31076	0.02305
838.25117	0.02308
836.19159	0.02287
834.13200	0.02265
832.07242	0.02246
830.01283	0.02232
827.95325	0.02234
825.89366	0.02242
823.83408	0.02242
821.77449	0.02246
819.71491	0.02247
817.65532	0.02238
815.59574	0.02236
813.53615	0.02241
811.47657	0.02239
809.41698	0.02235
807.35740	0.02233
805.29781	0.02229
803.23822	0.02226
801.17864	0.02228
799.11905	0.02229
797.05947	0.02216
794.99988	0.02194
792.94030	0.02189
790.88071	0.02196
788.82113	0.02197
786.76154	0.02193
784.70196	0.02195
782.64237	0.02206
780.58279	0.02215
778.52320	0.02212
776.46362	0.02204
774.40403	0.02208
772.34445	0.02216
770.28486	0.02212
768.22528	0.02210
766.16569	0.02217
764.10611	0.02228
762.04652	0.02230
759.98694	0.02222
757.92735	0.02217
755.86777	0.02218
753.80818	0.02219
751.74859	0.02222
749.68901	0.02220
747.62942	0.02212
745.56984	0.02213
743.51025	0.02222
741.45067	0.02232
739.39108	0.02252
737.33150	0.02264
735.27191	0.02253
733.21233	0.02245
731.15274	0.02242
729.09316	0.02236
727.03357	0.02235
724.97399	0.02244
722.91440	0.02262
720.85482	0.02285
718.79523	0.02297
716.73565	0.02293
714.67606	0.02300
712.61648	0.02321
710.55689	0.02340
708.49731	0.02348
706.43772	0.02344
704.37814	0.02338
702.31855	0.02346
700.25897	0.02362
698.19938	0.02366
696.13979	0.02358
694.08021	0.02353
692.02062	0.02354
689.96104	0.02356
687.90145	0.02362
685.84187	0.02371
683.78228	0.02369
681.72270	0.02367
679.66311	0.02377
677.60353	0.02384
675.54394	0.02383
673.48436	0.02380
671.42477	0.02372
669.36519	0.02359
667.30560	0.02355
665.24602	0.02360
663.18643	0.02367
661.12685	0.02367
659.06726	0.02365
657.00768	0.02364
654.94809	0.02366
652.88851	0.02364
650.82892	0.02355
648.76934	0.02356
646.70975	0.02363
644.65016	0.02354
642.59058	0.02347
640.53099	0.02364
638.47141	0.02378
636.41182	0.02369
634.35224	0.02352
632.29265	0.02342
630.23307	0.02347
628.17348	0.02362
626.11390	0.02374
624.05431	0.02370
621.99473	0.02359
619.93514	0.02361
617.87556	0.02372
615.81597	0.02383
613.75639	0.02386
611.69680	0.02365
609.63722	0.02336
607.57763	0.02334
605.51805	0.02358
603.45846	0.02382
601.39888	0.02394
599.33929	0.02394
597.27971	0.02380
595.22012	0.02357
593.16054	0.02341
591.10095	0.02342
589.04136	0.02336
586.98178	0.02318
584.92219	0.02316
582.86261	0.02340
580.80302	0.02359
578.74344	0.02346
576.68385	0.02325
574.62427	0.02322
572.56468	0.02320
570.50510	0.02317
568.44551	0.02331
566.38593	0.02340
564.32634	0.02323
562.26676	0.02306
560.20717	0.02313
558.14759	0.02331
556.08800	0.02337
554.02842	0.02336
551.96883	0.02337
549.90925	0.02339
547.84966	0.02334
545.79008	0.02321
543.73049	0.02310
541.67091	0.02314
539.61132	0.02322
537.55173	0.02310
535.49215	0.02297
533.43256	0.02309
531.37298	0.02322
529.31339	0.02316
527.25381	0.02305
525.19422	0.02300
523.13464	0.02305
521.07505	0.02318
519.01547	0.02315
516.95588	0.02288
514.89630	0.02251
512.83671	0.02225
510.77713	0.02224
508.71754	0.02239
506.65796	0.02246
504.59837	0.02236
502.53879	0.02216
500.47920	0.02208
498.41962	0.02217
496.36003	0.02216
494.30045	0.02196
492.24086	0.02185
490.18128	0.02199
488.12169	0.02213
486.06211	0.02207
484.00252	0.02197
481.94293	0.02190
479.88335	0.02185
477.82376	0.02182
475.76418	0.02188
473.70459	0.02205
471.64501	0.02202
469.58542	0.02163
467.52584	0.02130
465.46625	0.02134
463.40667	0.02155
461.34708	0.02159
459.28750	0.02141
457.22791	0.02125
455.16833	0.02128
453.10874	0.02136
451.04916	0.02132
448.98957	0.02106
446.92999	0.02072
444.87040	0.02046
442.81082	0.02040
440.75123	0.02061
438.69165	0.02097
436.63206	0.02126
434.57248	0.02134
432.51289	0.02109
430.45330	0.02068
428.39372	0.02054
426.33413	0.02084
424.27455	0.02107
422.21496	0.02085
420.15538	0.02064
418.09579	0.02092
416.03621	0.02129
413.97662	0.02117
411.91704	0.02076
409.85745	0.02054
407.79787	0.02051
405.73828	0.02038
403.67870	0.02013
401.61911	0.02000
399.55953	0.01999
