3997.70013,0.04446
3995.64052,0.04414
3993.58092,0.04424
3991.52131,0.04482
3989.46170,0.04486
3987.40209,0.04414
3985.34248,0.04374
3983.28287,0.04431
3981.22327,0.04507
3979.16366,0.04506
3977.10405,0.04449
3975.04444,0.04421
3972.98483,0.04443
3970.92522,0.04464
3968.86561,0.04469
3966.80601,0.04491
3964.74640,0.04511
3962.68679,0.04502
3960.62718,0.04507
3958.56757,0.04555
3956.50796,0.04555
3954.44835,0.04463
3952.38875,0.04395
3950.32914,0.04402
3948.26953,0.04400
3946.20992,0.04371
3944.15031,0.04376
3942.09070,0.04416
3940.03109,0.04458
3937.97149,0.04478
3935.91188,0.04453
3933.85227,0.04405
3931.79266,0.04372
3929.73305,0.04347
3927.67344,0.04307
3925.61384,0.04287
3923.55423,0.04316
3921.49462,0.04369
3919.43501,0.04420
3917.37540,0.04419
3915.31579,0.04361
3913.25618,0.04297
3911.19658,0.04283
3909.13697,0.04318
3907.07736,0.04319
3905.01775,0.04265
3902.95814,0.04227
3900.89853,0.04240
3898.83892,0.04263
3896.77932,0.04228
3894.71971,0.04176
3892.66010,0.04214
3890.60049,0.04319
3888.54088,0.04334
3886.48127,0.04295
3884.42166,0.04299
3882.36206,0.04285
3880.30245,0.04280
3878.24284,0.04301
3876.18323,0.04277
3874.12362,0.04227
3872.06401,0.04163
3870.00441,0.04075
3867.94480,0.04015
3865.88519,0.04037
3863.82558,0.04141
3861.76597,0.04225
3859.70636,0.04181
3857.64675,0.04084
3855.58715,0.04056
3853.52754,0.04119
3851.46793,0.04190
3849.40832,0.04219
3847.34871,0.04221
3845.28910,0.04215
3843.22949,0.04223
3841.16989,0.04223
3839.11028,0.04152
3837.05067,0.04063
3834.99106,0.04043
3832.93145,0.04059
3830.87184,0.04117
3828.81223,0.04191
3826.75263,0.04211
3824.69302,0.04146
3822.63341,0.04062
3820.57380,0.04064
3818.51419,0.04067
3816.45458,0.04038
3814.39498,0.04055
3812.33537,0.04072
3810.27576,0.04072
3808.21615,0.04080
3806.15654,0.04086
3804.09693,0.04091
3802.03732,0.04130
3799.97772,0.04185
3797.91811,0.04158
3795.85850,0.04082
3793.79889,0.04017
3791.73928,0.03935
3789.67967,0.03873
3787.62006,0.03904
3785.56046,0.04019
3783.50085,0.04114
3781.44124,0.04119
3779.38163,0.04092
3777.32202,0.04066
3775.26241,0.04033
3773.20280,0.03985
3771.14320,0.03949
3769.08359,0.03959
3767.02398,0.03979
3764.96437,0.03972
3762.90476,0.03956
3760.84515,0.03990
3758.78555,0.04038
3756.72594,0.04029
3754.66633,0.04016
3752.60672,0.03963
3750.54711,0.03858
3748.48750,0.03883
3746.42789,0.03970
3744.36829,0.03986
3742.30868,0.03958
3740.24907,0.03930
3738.18946,0.03889
3736.12985,0.03878
3734.07024,0.03940
3732.01063,0.03943
3729.95103,0.03877
3727.89142,0.03863
3725.83181,0.03873
3723.77220,0.03858
3721.71259,0.03830
3719.65298,0.03777
3717.59337,0.03716
3715.53377,0.03693
3713.47416,0.03763
3711.41455,0.03894
3709.35494,0.03973
3707.29533,0.03998
3705.23572,0.03985
3703.17612,0.03930
3701.11651,0.03816
3699.05690,0.03727
3696.99729,0.03773
3694.93768,0.03860
3692.87807,0.03854
3690.81846,0.03801
3688.75886,0.03796
3686.69925,0.03840
3684.63964,0.03907
3682.58003,0.03936
3680.52042,0.03862
3678.46081,0.03783
3676.40120,0.03856
3674.34160,0.04000
3672.28199,0.04024
3670.22238,0.03972
3668.16277,0.03938
3666.10316,0.03947
3664.04355,0.03957
3661.98394,0.03970
3659.92434,0.04021
3657.86473,0.04088
3655.80512,0.04111
3653.74551,0.04089
3651.68590,0.04076
3649.62629,0.04101
3647.56669,0.04165
3645.50708,0.04239
3643.44747,0.04257
3641.38786,0.04253
3639.32825,0.04294
3637.26864,0.04335
3635.20903,0.04378
3633.14943,0.04429
3631.08982,0.04471
3629.03021,0.04577
3626.97060,0.04694
3624.91099,0.04720
3622.85138,0.04719
3620.79177,0.04719
3618.73217,0.04729
3616.67256,0.04765
3614.61295,0.04813
3612.55334,0.04888
3610.49373,0.04947
3608.43412,0.04970
3606.37451,0.05013
3604.31491,0.05086
3602.25530,0.05152
3600.19569,0.05202
3598.13608,0.05259
3596.07647,0.05299
3594.01686,0.05312
3591.95726,0.05313
3589.89765,0.05327
3587.83804,0.05395
3585.77843,0.05483
3583.71882,0.05560
3581.65921,0.05611
3579.59960,0.05627
3577.54000,0.05668
3575.48039,0.05747
3573.42078,0.05797
3571.36117,0.05826
3569.30156,0.05858
3567.24195,0.05896
3565.18234,0.05995
3563.12274,0.06094
3561.06313,0.06100
3559.00352,0.06090
3556.94391,0.06167
3554.88430,0.06261
3552.82469,0.06312
3550.76508,0.06369
3548.70548,0.06452
3546.64587,0.06556
3544.58626,0.06642
3542.52665,0.06656
3540.46704,0.06673
3538.40743,0.06761
3536.34783,0.06842
3534.28822,0.06869
3532.22861,0.06883
3530.16900,0.06910
3528.10939,0.06991
3526.04978,0.07111
3523.99017,0.07183
3521.93057,0.07200
3519.87096,0.07228
3517.81135,0.07269
3515.75174,0.07292
3513.69213,0.07334
3511.63252,0.07401
3509.57291,0.07459
3507.51331,0.07504
3505.45370,0.07529
3503.39409,0.07573
3501.33448,0.07642
3499.27487,0.07679
3497.21526,0.07706
3495.15565,0.07746
3493.09605,0.07772
3491.03644,0.07771
3488.97683,0.07778
3486.91722,0.07836
3484.85761,0.07922
3482.79800,0.07980
3480.73840,0.07999
3478.67879,0.07983
3476.61918,0.07965
3474.55957,0.08009
3472.49996,0.08094
3470.44035,0.08140
3468.38074,0.08123
3466.32114,0.08112
3464.26153,0.08154
3462.20192,0.08188
3460.14231,0.08192
3458.08270,0.08200
3456.02309,0.08210
3453.96348,0.08230
3451.90388,0.08266
3449.84427,0.08293
3447.78466,0.08336
3445.72505,0.08398
3443.66544,0.08451
3441.60583,0.08497
3439.54622,0.08501
3437.48662,0.08505
3435.42701,0.08574
3433.36740,0.08638
3431.30779,0.08660
3429.24818,0.08705
3427.18857,0.08792
3425.12897,0.08898
3423.06936,0.09011
3421.00975,0.09099
3418.95014,0.09139
3416.89053,0.09189
3414.83092,0.09277
3412.77131,0.09359
3410.71171,0.09404
3408.65210,0.09406
3406.59249,0.09440
3404.53288,0.09552
3402.47327,0.09636
3400.41366,0.09662
3398.35405,0.09705
3396.29445,0.09766
3394.23484,0.09816
3392.17523,0.09865
3390.11562,0.09919
3388.05601,0.09962
3385.99640,0.10002
3383.93679,0.10060
3381.87719,0.10136
3379.81758,0.10208
3377.75797,0.10240
3375.69836,0.10274
3373.63875,0.10376
3371.57914,0.10488
3369.51954,0.10566
3367.45993,0.10660
3365.40032,0.10779
3363.34071,0.10880
3361.28110,0.10935
3359.22149,0.10970
3357.16188,0.11034
3355.10228,0.11104
3353.04267,0.11166
3350.98306,0.11270
3348.92345,0.11416
3346.86384,0.11550
3344.80423,0.11667
3342.74462,0.11787
3340.68502,0.11911
3338.62541,0.12030
3336.56580,0.12156
3334.50619,0.12312
3332.44658,0.12486
3330.38697,0.12697
3328.32736,0.12952
3326.26776,0.13141
3324.20815,0.13252
3322.14854,0.13431
3320.08893,0.13722
3318.02932,0.14035
3315.96971,0.14305
3313.91011,0.14542
3311.85050,0.14788
3309.79089,0.15069
3307.73128,0.15392
3305.67167,0.15705
3303.61206,0.15969
3301.55245,0.16232
3299.49285,0.16553
3297.43324,0.16950
3295.37363,0.17395
3293.31402,0.17839
3291.25441,0.18276
3289.19480,0.18745
3287.13519,0.19232
3285.07559,0.19684
3283.01598,0.20120
3280.95637,0.20573
3278.89676,0.20965
3276.83715,0.21253
3274.77754,0.21529
3272.71793,0.21802
3270.65833,0.21961
3268.59872,0.21977
3266.53911,0.21918
3264.47950,0.21801
3262.41989,0.21595
3260.36028,0.21342
3258.30068,0.21098
3256.24107,0.20792
3254.18146,0.20416
3252.12185,0.20066
3250.06224,0.19741
3248.00263,0.19417
3245.94302,0.19141
3243.88342,0.18893
3241.82381,0.18615
3239.76420,0.18325
3237.70459,0.18066
3235.64498,0.17854
3233.58537,0.17673
3231.52576,0.17484
3229.46616,0.17259
3227.40655,0.17038
3225.34694,0.16862
3223.28733,0.16690
3221.22772,0.16487
3219.16811,0.16287
3217.10850,0.16106
3215.04890,0.15916
3212.98929,0.15720
3210.92968,0.15523
3208.87007,0.15321
3206.81046,0.15133
3204.75085,0.14977
3202.69125,0.14857
3200.63164,0.14757
3198.57203,0.14625
3196.51242,0.14435
3194.45281,0.14235
3192.39320,0.14062
3190.33359,0.13904
3188.27399,0.13756
3186.21438,0.13625
3184.15477,0.13481
3182.09516,0.13295
3180.03555,0.13110
3177.97594,0.12981
3175.91633,0.12903
3173.85673,0.12804
3171.79712,0.12668
3169.73751,0.12538
3167.67790,0.12419
3165.61829,0.12284
3163.55868,0.12148
3161.49907,0.12025
3159.43947,0.11894
3157.37986,0.11759
3155.32025,0.11648
3153.26064,0.11574
3151.20103,0.11513
3149.14142,0.11412
3147.08182,0.11250
3145.02221,0.11114
3142.96260,0.11062
3140.90299,0.11018
3138.84338,0.10929
3136.78377,0.10833
3134.72416,0.10768
3132.66456,0.10725
3130.60495,0.10691
3128.54534,0.10667
3126.48573,0.10623
3124.42612,0.10551
3122.36651,0.10510
3120.30690,0.10505
3118.24730,0.10499
3116.18769,0.10499
3114.12808,0.10517
3112.06847,0.10520
3110.00886,0.10497
3107.94925,0.10494
3105.88965,0.10516
3103.83004,0.10564
3101.77043,0.10641
3099.71082,0.10684
3097.65121,0.10688
3095.59160,0.10712
3093.53199,0.10772
3091.47239,0.10839
3089.41278,0.10879
3087.35317,0.10906
3085.29356,0.10945
3083.23395,0.11000
3081.17434,0.11081
3079.11473,0.11141
3077.05513,0.11126
3074.99552,0.11109
3072.93591,0.11150
3070.87630,0.11182
3068.81669,0.11152
3066.75708,0.11110
3064.69747,0.11077
3062.63787,0.11023
3060.57826,0.10952
3058.51865,0.10893
3056.45904,0.10815
3054.39943,0.10699
3052.33982,0.10610
3050.28022,0.10552
3048.22061,0.10464
3046.16100,0.10345
3044.10139,0.10231
3042.04178,0.10130
3039.98217,0.10027
3037.92256,0.09927
3035.86296,0.09847
3033.80335,0.09744
3031.74374,0.09610
3029.68413,0.09493
3027.62452,0.09416
3025.56491,0.09386
3023.50530,0.09359
3021.44570,0.09285
3019.38609,0.09192
3017.32648,0.09129
3015.26687,0.09115
3013.20726,0.09104
3011.14765,0.09024
3009.08804,0.08917
3007.02844,0.08890
3004.96883,0.08915
3002.90922,0.08931
3000.84961,0.08942
2998.79000,0.08962
2996.73039,0.09004
2994.67079,0.09070
2992.61118,0.09139
2990.55157,0.09201
2988.49196,0.09274
2986.43235,0.09369
2984.37274,0.09472
2982.31313,0.09537
2980.25353,0.09572
2978.19392,0.09607
2976.13431,0.09640
2974.07470,0.09680
2972.01509,0.09719
2969.95548,0.09713
2967.89587,0.09663
2965.83627,0.09588
2963.77666,0.09461
2961.71705,0.09312
2959.65744,0.09206
2957.59783,0.09128
2955.53822,0.09044
2953.47861,0.08985
2951.41901,0.08966
2949.35940,0.08973
2947.29979,0.09016
2945.24018,0.09102
2943.18057,0.09214
2941.12096,0.09326
2939.06136,0.09452
2937.00175,0.09614
2934.94214,0.09775
2932.88253,0.09880
2930.82292,0.09936
2928.76331,0.09972
2926.70370,0.09938
2924.64410,0.09789
2922.58449,0.09577
2920.52488,0.09353
2918.46527,0.09117
2916.40566,0.08914
2914.34605,0.08793
2912.28644,0.08742
2910.22684,0.08692
2908.16723,0.08598
2906.10762,0.08520
2904.04801,0.08479
2901.98840,0.08414
2899.92879,0.08345
2897.86918,0.08307
2895.80958,0.08262
2893.74997,0.08216
2891.69036,0.08188
2889.63075,0.08160
2887.57114,0.08132
2885.51153,0.08129
2883.45193,0.08135
2881.39232,0.08131
2879.33271,0.08175
2877.27310,0.08258
2875.21349,0.08315
2873.15388,0.08355
2871.09427,0.08363
2869.03467,0.08306
2866.97506,0.08217
2864.91545,0.08137
2862.85584,0.08059
2860.79623,0.07976
2858.73662,0.07920
2856.67701,0.07900
2854.61741,0.07854
2852.55780,0.07736
2850.49819,0.07590
2848.43858,0.07480
2846.37897,0.07426
2844.31936,0.07390
2842.25975,0.07345
2840.20015,0.07311
2838.14054,0.07293
2836.08093,0.07265
2834.02132,0.07204
2831.96171,0.07128
2829.90210,0.07076
2827.84250,0.07043
2825.78289,0.07011
2823.72328,0.06998
2821.66367,0.07001
2819.60406,0.07006
2817.54445,0.07008
2815.48484,0.07003
2813.42524,0.06983
2811.36563,0.06954
2809.30602,0.06922
2807.24641,0.06907
2805.18680,0.06900
2803.12719,0.06877
2801.06758,0.06860
2799.00798,0.06850
2796.94837,0.06830
2794.88876,0.06804
2792.82915,0.06784
2790.76954,0.06771
2788.70993,0.06750
2786.65032,0.06726
2784.59072,0.06712
2782.53111,0.06693
2780.47150,0.06655
2778.41189,0.06615
2776.35228,0.06589
2774.29267,0.06577
2772.23307,0.06571
2770.17346,0.06559
2768.11385,0.06539
2766.05424,0.06516
2763.99463,0.06493
2761.93502,0.06483
2759.87541,0.06474
2757.81581,0.06447
2755.75620,0.06413
2753.69659,0.06382
2751.63698,0.06347
2749.57737,0.06323
2747.51776,0.06312
2745.45815,0.06287
2743.39855,0.06245
2741.33894,0.06224
2739.27933,0.06225
2737.21972,0.06209
2735.16011,0.06187
2733.10050,0.06168
2731.04089,0.06133
2728.98129,0.06092
2726.92168,0.06053
2724.86207,0.06009
2722.80246,0.05963
2720.74285,0.05932
2718.68324,0.05932
2716.62364,0.05939
2714.56403,0.05912
2712.50442,0.05875
2710.44481,0.05877
2708.38520,0.05899
2706.32559,0.05873
2704.26598,0.05813
2702.20638,0.05792
2700.14677,0.05793
2698.08716,0.05777
2696.02755,0.05749
2693.96794,0.05727
2691.90833,0.05731
2689.84872,0.05752
2687.78912,0.05747
2685.72951,0.05725
2683.66990,0.05720
2681.61029,0.05703
2679.55068,0.05663
2677.49107,0.05646
2675.43146,0.05657
2673.37186,0.05651
2671.31225,0.05613
2669.25264,0.05581
2667.19303,0.05574
2665.13342,0.05578
2663.07381,0.05598
2661.01421,0.05625
2658.95460,0.05628
2656.89499,0.05595
2654.83538,0.05532
2652.77577,0.05473
2650.71616,0.05449
2648.65655,0.05438
2646.59695,0.05416
2644.53734,0.05425
2642.47773,0.05458
2640.41812,0.05454
2638.35851,0.05411
2636.29890,0.05381
2634.23929,0.05384
2632.17969,0.05379
2630.12008,0.05355
2628.06047,0.05339
2626.00086,0.05338
2623.94125,0.05343
2621.88164,0.05328
2619.82203,0.05295
2617.76243,0.05262
2615.70282,0.05237
2613.64321,0.05216
2611.58360,0.05186
2609.52399,0.05157
2607.46438,0.05148
2605.40478,0.05152
2603.34517,0.05141
2601.28556,0.05100
2599.22595,0.05064
2597.16634,0.05091
2595.10673,0.05128
2593.04712,0.05094
2590.98752,0.05044
2588.92791,0.05025
2586.86830,0.05008
2584.80869,0.04983
2582.74908,0.04935
2580.68947,0.04886
2578.62986,0.04881
2576.57026,0.04905
2574.51065,0.04897
2572.45104,0.04845
2570.39143,0.04798
2568.33182,0.04758
2566.27221,0.04711
2564.21260,0.04663
2562.15300,0.04660
2560.09339,0.04708
2558.03378,0.04729
2555.97417,0.04722
2553.91456,0.04741
2551.85495,0.04758
2549.79535,0.04735
2547.73574,0.04697
2545.67613,0.04681
2543.61652,0.04689
2541.55691,0.04684
2539.49730,0.04637
2537.43769,0.04607
2535.37809,0.04624
2533.31848,0.04632
2531.25887,0.04641
2529.19926,0.04677
2527.13965,0.04686
2525.08004,0.04662
2523.02043,0.04637
2520.96083,0.04594
2518.90122,0.04547
2516.84161,0.04528
2514.78200,0.04519
2512.72239,0.04510
2510.66278,0.04499
2508.60317,0.04466
2506.54357,0.04433
2504.48396,0.04415
2502.42435,0.04395
2500.36474,0.04389
2498.30513,0.04403
2496.24552,0.04405
2494.18592,0.04389
2492.12631,0.04373
2490.06670,0.04364
2488.00709,0.04383
2485.94748,0.04415
2483.88787,0.04408
2481.82826,0.04375
2479.76866,0.04384
2477.70905,0.04407
2475.64944,0.04402
2473.58983,0.04397
2471.53022,0.04385
2469.47061,0.04363
2467.41100,0.04352
2465.35140,0.04344
2463.29179,0.04351
2461.23218,0.04376
2459.17257,0.04389
2457.11296,0.04365
2455.05335,0.04317
2452.99374,0.04285
2450.93414,0.04289
2448.87453,0.04294
2446.81492,0.04280
2444.75531,0.04260
2442.69570,0.04258
2440.63609,0.04278
2438.57649,0.04294
2436.51688,0.04285
2434.45727,0.04247
2432.39766,0.04204
2430.33805,0.04173
2428.27844,0.04167
2426.21883,0.04204
2424.15923,0.04261
2422.09962,0.04298
2420.04001,0.04290
2417.98040,0.04254
2415.92079,0.04221
2413.86118,0.04195
2411.80157,0.04187
2409.74197,0.04180
2407.68236,0.04139
2405.62275,0.04098
2403.56314,0.04100
2401.50353,0.04118
2399.44392,0.04135
2397.38431,0.04159
2395.32471,0.04156
2393.26510,0.04120
2391.20549,0.04100
2389.14588,0.04088
2387.08627,0.04058
2385.02666,0.04047
2382.96706,0.04074
2380.90745,0.04101
2378.84784,0.04117
2376.78823,0.04125
2374.72862,0.04140
2372.66901,0.04169
2370.60940,0.04199
2368.54980,0.04227
2366.49019,0.04270
2364.43058,0.04325
2362.37097,0.04333
2360.31136,0.04272
2358.25175,0.04161
2356.19214,0.04096
2354.13254,0.04137
2352.07293,0.04168
2350.01332,0.04135
2347.95371,0.04112
2345.89410,0.04119
2343.83449,0.04117
2341.77488,0.04117
2339.71528,0.04120
2337.65567,0.04111
2335.59606,0.04090
2333.53645,0.04062
2331.47684,0.04065
2329.41723,0.04121
2327.35763,0.04206
2325.29802,0.04265
2323.23841,0.04240
2321.17880,0.04146
2319.11919,0.04063
2317.05958,0.04038
2314.99997,0.04052
2312.94037,0.04058
2310.88076,0.04017
2308.82115,0.03959
2306.76154,0.03927
2304.70193,0.03909
2302.64232,0.03897
2300.58271,0.03884
2298.52311,0.03870
2296.46350,0.03887
2294.40389,0.03911
2292.34428,0.03930
2290.28467,0.03935
2288.22506,0.03908
2286.16545,0.03884
2284.10585,0.03862
2282.04624,0.03845
2279.98663,0.03823
2277.92702,0.03781
2275.86741,0.03752
2273.80780,0.03721
2271.74820,0.03714
2269.68859,0.03740
2267.62898,0.03737
2265.56937,0.03688
2263.50976,0.03596
2261.45015,0.03538
2259.39054,0.03564
2257.33094,0.03579
2255.27133,0.03542
2253.21172,0.03514
2251.15211,0.03505
2249.09250,0.03482
2247.03289,0.03478
2244.97328,0.03497
2242.91368,0.03487
2240.85407,0.03437
2238.79446,0.03382
2236.73485,0.03341
2234.67524,0.03313
2232.61563,0.03312
2230.55602,0.03353
2228.49642,0.03366
2226.43681,0.03293
2224.37720,0.03218
2222.31759,0.03238
2220.25798,0.03275
2218.19837,0.03273
2216.13877,0.03306
2214.07916,0.03350
2212.01955,0.03345
2209.95994,0.03281
2207.90033,0.03215
2205.84072,0.03213
2203.78111,0.03256
2201.72151,0.03324
2199.66190,0.03348
2197.60229,0.03222
2195.54268,0.03052
2193.48307,0.03001
2191.42346,0.02980
2189.36385,0.02966
2187.30425,0.03065
2185.24464,0.03180
2183.18503,0.03153
2181.12542,0.03005
2179.06581,0.02897
2177.00620,0.02872
2174.94659,0.02899
2172.88699,0.02926
2170.82738,0.02876
2168.76777,0.02798
2166.70816,0.02784
2164.64855,0.02807
2162.58894,0.02752
2160.52934,0.02562
2158.46973,0.02419
2156.41012,0.02457
2154.35051,0.02517
2152.29090,0.02548
2150.23129,0.02586
2148.17168,0.02648
2146.11208,0.02789
2144.05247,0.02880
2141.99286,0.02806
2139.93325,0.02692
2137.87364,0.02619
2135.81403,0.02610
2133.75442,0.02711
2131.69482,0.02849
2129.63521,0.02914
2127.57560,0.02937
2125.51599,0.02969
2123.45638,0.03022
2121.39677,0.03056
2119.33716,0.03042
2117.27756,0.03074
2115.21795,0.03143
2113.15834,0.03166
2111.09873,0.03140
2109.03912,0.03089
2106.97951,0.03071
2104.91991,0.03106
2102.86030,0.03155
2100.80069,0.03163
2098.74108,0.03099
2096.68147,0.03015
2094.62186,0.02989
2092.56225,0.03005
2090.50265,0.03012
2088.44304,0.03004
2086.38343,0.03000
2084.32382,0.03012
2082.26421,0.03000
2080.20460,0.02937
2078.14499,0.02901
2076.08539,0.02918
2074.02578,0.02907
2071.96617,0.02897
2069.90656,0.02919
2067.84695,0.02907
2065.78734,0.02857
2063.72773,0.02845
2061.66813,0.02878
2059.60852,0.02893
2057.54891,0.02873
2055.48930,0.02812
2053.42969,0.02771
2051.37008,0.02820
2049.31048,0.02889
2047.25087,0.02878
2045.19126,0.02737
2043.13165,0.02584
2041.07204,0.02569
2039.01243,0.02572
2036.95282,0.02465
2034.89322,0.02355
2032.83361,0.02342
2030.77400,0.02344
2028.71439,0.02334
2026.65478,0.02361
2024.59517,0.02383
2022.53556,0.02381
2020.47596,0.02359
2018.41635,0.02348
2016.35674,0.02373
2014.29713,0.02397
2012.23752,0.02431
2010.17791,0.02430
2008.11830,0.02355
2006.05870,0.02306
2003.99909,0.02313
2001.93948,0.02311
1999.87987,0.02306
1997.82026,0.02351
1995.76065,0.02415
1993.70105,0.02413
1991.64144,0.02410
1989.58183,0.02405
1987.52222,0.02352
1985.46261,0.02355
1983.40300,0.02352
1981.34339,0.02287
1979.28379,0.02243
1977.22418,0.02194
1975.16457,0.02143
1973.10496,0.02108
1971.04535,0.02119
1968.98574,0.02186
1966.92613,0.02183
1964.86653,0.02111
1962.80692,0.02092
1960.74731,0.02115
1958.68770,0.02187
1956.62809,0.02339
1954.56848,0.02460
1952.50887,0.02454
1950.44927,0.02399
1948.38966,0.02384
1946.33005,0.02360
1944.27044,0.02314
1942.21083,0.02301
1940.15122,0.02307
1938.09162,0.02336
1936.03201,0.02387
1933.97240,0.02399
1931.91279,0.02368
1929.85318,0.02323
1927.79357,0.02293
1925.73396,0.02327
1923.67436,0.02410
1921.61475,0.02437
1919.55514,0.02395
1917.49553,0.02369
1915.43592,0.02376
1913.37631,0.02371
1911.31670,0.02361
1909.25710,0.02380
1907.19749,0.02399
1905.13788,0.02402
1903.07827,0.02420
1901.01866,0.02408
1898.95905,0.02343
1896.89944,0.02299
1894.83984,0.02313
1892.78023,0.02327
1890.72062,0.02296
1888.66101,0.02258
1886.60140,0.02271
1884.54179,0.02310
1882.48219,0.02322
1880.42258,0.02304
1878.36297,0.02294
1876.30336,0.02279
1874.24375,0.02256
1872.18414,0.02265
1870.12453,0.02289
1868.06493,0.02291
1866.00532,0.02277
1863.94571,0.02261
1861.88610,0.02239
1859.82649,0.02223
1857.76688,0.02220
1855.70727,0.02218
1853.64767,0.02223
1851.58806,0.02247
1849.52845,0.02268
1847.46884,0.02267
1845.40923,0.02261
1843.34962,0.02247
1841.29002,0.02199
1839.23041,0.02151
1837.17080,0.02135
1835.11119,0.02133
1833.05158,0.02131
1830.99197,0.02127
1828.93236,0.02120
1826.87276,0.02096
1824.81315,0.02055
1822.75354,0.02038
1820.69393,0.02047
1818.63432,0.02041
1816.57471,0.02022
1814.51510,0.02029
1812.45550,0.02058
1810.39589,0.02068
1808.33628,0.02050
1806.27667,0.02039
1804.21706,0.02047
1802.15745,0.02046
1800.09784,0.02028
1798.03824,0.02011
1795.97863,0.01998
1793.91902,0.01982
1791.85941,0.01976
1789.79980,0.01982
1787.74019,0.01989
1785.68059,0.01998
1783.62098,0.01996
1781.56137,0.01974
1779.50176,0.01942
1777.44215,0.01918
1775.38254,0.01904
1773.32293,0.01893
1771.26333,0.01877
1769.20372,0.01868
1767.14411,0.01868
1765.08450,0.01870
1763.02489,0.01859
1760.96528,0.01845
1758.90567,0.01844
1756.84607,0.01837
1754.78646,0.01816
1752.72685,0.01797
1750.66724,0.01783
1748.60763,0.01782
1746.54802,0.01808
1744.48841,0.01831
1742.42881,0.01828
1740.36920,0.01806
1738.30959,0.01791
1736.24998,0.01784
1734.19037,0.01770
1732.13076,0.01783
1730.07116,0.01821
1728.01155,0.01857
1725.95194,0.01892
1723.89233,0.01937
1721.83272,0.01979
1719.77311,0.02029
1717.71350,0.02117
1715.65390,0.02242
1713.59429,0.02390
1711.53468,0.02572
1709.47507,0.02816
1707.41546,0.03165
1705.35585,0.03663
1703.29624,0.04205
1701.23664,0.04860
1699.17703,0.05615
1697.11742,0.06071
1695.05781,0.06326
1692.99820,0.06493
1690.93859,0.06619
1688.87898,0.06778
1686.81938,0.06955
1684.75977,0.07230
1682.70016,0.07606
1680.64055,0.07908
1678.58094,0.08176
1676.52133,0.08499
1674.46173,0.08906
1672.40212,0.09279
1670.34251,0.09668
1668.28290,0.10128
1666.22329,0.10491
1664.16368,0.10827
1662.10407,0.11264
1660.04447,0.11699
1657.98486,0.12042
1655.92525,0.12326
1653.86564,0.12790
1651.80603,0.13448
1649.74642,0.13812
1647.68681,0.14184
1645.62721,0.14762
1643.56760,0.15284
1641.50799,0.15760
1639.44838,0.16260
1637.38877,0.16841
1635.32916,0.17680
1633.26955,0.18461
1631.20995,0.18991
1629.15034,0.19530
1627.09073,0.20089
1625.03112,0.20521
1622.97151,0.20818
1620.91190,0.20914
1618.85230,0.20792
1616.79269,0.20518
1614.73308,0.20143
1612.67347,0.19711
1610.61386,0.19179
1608.55425,0.18518
1606.49464,0.17771
1604.43504,0.17008
1602.37543,0.16273
1600.31582,0.15594
1598.25621,0.14985
1596.19660,0.14457
1594.13699,0.13994
1592.07738,0.13561
1590.01778,0.13147
1587.95817,0.12781
1585.89856,0.12477
1583.83895,0.12227
1581.77934,0.12031
1579.71973,0.11881
1577.66012,0.11783
1575.60052,0.11759
1573.54091,0.11765
1571.48130,0.11811
1569.42169,0.11979
1567.36208,0.12212
1565.30247,0.12455
1563.24287,0.12690
1561.18326,0.12907
1559.12365,0.13358
1557.06404,0.13906
1555.00443,0.14201
1552.94482,0.14464
1550.88521,0.14764
1548.82561,0.15080
1546.76600,0.15377
1544.70639,0.15670
1542.64678,0.15972
1540.58717,0.16395
1538.52756,0.16887
1536.46795,0.17158
1534.40835,0.17426
1532.34874,0.17801
1530.28913,0.18086
1528.22952,0.18315
1526.16991,0.18572
1524.11030,0.18806
1522.05069,0.19082
1519.99109,0.19419
1517.93148,0.19736
1515.87187,0.20058
1513.81226,0.20259
1511.75265,0.20261
1509.69304,0.20118
1507.63344,0.19861
1505.57383,0.19518
1503.51422,0.19143
1501.45461,0.18725
1499.39500,0.18256
1497.33539,0.17729
1495.27578,0.17158
1493.21618,0.16611
1491.15657,0.16051
1489.09696,0.15429
1487.03735,0.14821
1484.97774,0.14275
1482.91813,0.13788
1480.85852,0.13351
1478.79892,0.12970
1476.73931,0.12633
1474.67970,0.12332
1472.62009,0.12068
1470.56048,0.11847
1468.50087,0.11668
1466.44126,0.11512
1464.38166,0.11419
1462.32205,0.11432
1460.26244,0.11537
1458.20283,0.11783
1456.14322,0.12148
1454.08361,0.12393
1452.02401,0.12566
1449.96440,0.12796
1447.90479,0.13114
1445.84518,0.13404
1443.78557,0.13498
1441.72596,0.13372
1439.66635,0.13094
1437.60675,0.12731
1435.54714,0.12344
1433.48753,0.12009
1431.42792,0.11701
1429.36831,0.11420
1427.30870,0.11201
1425.24909,0.11044
1423.18949,0.10953
1421.12988,0.10925
1419.07027,0.10963
1417.01066,0.11040
1414.95105,0.11112
1412.89144,0.11186
1410.83183,0.11276
1408.77223,0.11382
1406.71262,0.11502
1404.65301,0.11621
1402.59340,0.11697
1400.53379,0.11737
1398.47418,0.11776
1396.41458,0.11808
1394.35497,0.11836
1392.29536,0.11850
1390.23575,0.11823
1388.17614,0.11780
1386.11653,0.11733
1384.05692,0.11663
1381.99732,0.11576
1379.93771,0.11491
1377.87810,0.11439
1375.81849,0.11471
1373.75888,0.11602
1371.69927,0.11731
1369.63966,0.11721
1367.58006,0.11545
1365.52045,0.11294
1363.46084,0.11052
1361.40123,0.10841
1359.34162,0.10647
1357.28201,0.10439
1355.22240,0.10226
1353.16280,0.10047
1351.10319,0.09911
1349.04358,0.09809
1346.98397,0.09738
1344.92436,0.09698
1342.86475,0.09677
1340.80515,0.09660
1338.74554,0.09638
1336.68593,0.09611
1334.62632,0.09571
1332.56671,0.09511
1330.50710,0.09434
1328.44749,0.09346
1326.38789,0.09253
1324.32828,0.09157
1322.26867,0.09070
1320.20906,0.09007
1318.14945,0.08961
1316.08984,0.08922
1314.03023,0.08897
1311.97063,0.08884
1309.91102,0.08854
1307.85141,0.08802
1305.79180,0.08739
1303.73219,0.08671
1301.67258,0.08597
1299.61297,0.08522
1297.55337,0.08447
1295.49376,0.08380
1293.43415,0.08333
1291.37454,0.08304
1289.31493,0.08286
1287.25532,0.08278
1285.19572,0.08277
1283.13611,0.08277
1281.07650,0.08284
1279.01689,0.08316
1276.95728,0.08384
1274.89767,0.08472
1272.83806,0.08562
1270.77846,0.08646
1268.71885,0.08730
1266.65924,0.08808
1264.59963,0.08881
1262.54002,0.08959
1260.48041,0.09040
1258.42080,0.09121
1256.36120,0.09218
1254.30159,0.09346
1252.24198,0.09499
1250.18237,0.09675
1248.12276,0.09887
1246.06315,0.10137
1244.00354,0.10405
1241.94394,0.10657
1239.88433,0.10857
1237.82472,0.10988
1235.76511,0.11057
1233.70550,0.11083
1231.64589,0.11093
1229.58629,0.11112
1227.52668,0.11148
1225.46707,0.11190
1223.40746,0.11224
1221.34785,0.11237
1219.28824,0.11195
1217.22863,0.11059
1215.16903,0.10830
1213.10942,0.10539
1211.04981,0.10231
1208.99020,0.09932
1206.93059,0.09636
1204.87098,0.09342
1202.81137,0.09075
1200.75177,0.08842
1198.69216,0.08634
1196.63255,0.08453
1194.57294,0.08301
1192.51333,0.08176
1190.45372,0.08074
1188.39411,0.07981
1186.33451,0.07899
1184.27490,0.07855
1182.21529,0.07865
1180.15568,0.07937
1178.09607,0.08069
1176.03646,0.08237
1173.97686,0.08415
1171.91725,0.08574
1169.85764,0.08693
1167.79803,0.08760
1165.73842,0.08768
1163.67881,0.08719
1161.61920,0.08616
1159.55960,0.08466
1157.49999,0.08284
1155.44038,0.08088
1153.38077,0.07900
1151.32116,0.07732
1149.26155,0.07571
1147.20194,0.07421
1145.14234,0.07300
1143.08273,0.07197
1141.02312,0.07101
1138.96351,0.07016
1136.90390,0.06939
1134.84429,0.06866
1132.78468,0.06804
1130.72508,0.06757
1128.66547,0.06713
1126.60586,0.06667
1124.54625,0.06627
1122.48664,0.06595
1120.42703,0.06570
1118.36743,0.06539
1116.30782,0.06491
1114.24821,0.06444
1112.18860,0.06415
1110.12899,0.06396
1108.06938,0.06384
1106.00977,0.06373
1103.95017,0.06365
1101.89056,0.06350
1099.83095,0.06318
1097.77134,0.06277
1095.71173,0.06245
1093.65212,0.06229
1091.59251,0.06230
1089.53291,0.06262
1087.47330,0.06333
1085.41369,0.06431
1083.35408,0.06531
1081.29447,0.06606
1079.23486,0.06657
1077.17525,0.06695
1075.11565,0.06723
1073.05604,0.06745
1070.99643,0.06767
1068.93682,0.06786
1066.87721,0.06795
1064.81760,0.06814
1062.75800,0.06867
1060.69839,0.06950
1058.63878,0.07046
1056.57917,0.07153
1054.51956,0.07266
1052.45995,0.07373
1050.40034,0.07444
1048.34074,0.07415
1046.28113,0.07277
1044.22152,0.07104
1042.16191,0.06948
1040.10230,0.06821
1038.04269,0.06722
1035.98308,0.06641
1033.92348,0.06575
1031.86387,0.06520
1029.80426,0.06470
1027.74465,0.06412
1025.68504,0.06343
1023.62543,0.06273
1021.56582,0.06197
1019.50622,0.06117
1017.44661,0.06052
1015.38700,0.05996
1013.32739,0.05941
1011.26778,0.05885
1009.20817,0.05823
1007.14857,0.05736
1005.08896,0.05634
1003.02935,0.05536
1000.96974,0.05458
998.91013,0.05401
996.85052,0.05351
994.79091,0.05289
992.73131,0.05210
990.67170,0.05130
988.61209,0.05066
986.55248,0.05014
984.49287,0.04966
982.43326,0.04931
980.37365,0.04912
978.31405,0.04911
976.25444,0.04939
974.19483,0.05024
972.13522,0.05211
970.07561,0.05520
968.01600,0.05892
965.95639,0.06196
963.89679,0.06317
961.83718,0.06234
959.77757,0.06012
957.71796,0.05746
955.65835,0.05517
953.59874,0.05348
951.53914,0.05222
949.47953,0.05121
947.41992,0.05037
945.36031,0.04972
943.30070,0.04923
941.24109,0.04885
939.18148,0.04861
937.12188,0.04853
935.06227,0.04856
933.00266,0.04878
930.94305,0.04909
928.88344,0.04933
926.82383,0.04947
924.76422,0.04941
922.70462,0.04903
920.64501,0.04829
918.58540,0.04742
916.52579,0.04656
914.46618,0.04577
912.40657,0.04518
910.34696,0.04480
908.28736,0.04450
906.22775,0.04435
904.16814,0.04447
902.10853,0.04464
900.04892,0.04456
897.98931,0.04418
895.92971,0.04374
893.87010,0.04337
891.81049,0.04299
889.75088,0.04258
887.69127,0.04229
885.63166,0.04216
883.57205,0.04203
881.51245,0.04191
879.45284,0.04187
877.39323,0.04188
875.33362,0.04180
873.27401,0.04150
871.21440,0.04109
869.15479,0.04079
867.09519,0.04067
865.03558,0.04060
862.97597,0.04050
860.91636,0.04047
858.85675,0.04048
856.79714,0.04048
854.73753,0.04067
852.67793,0.04094
850.61832,0.04102
848.55871,0.04105
846.49910,0.04116
844.43949,0.04116
842.37988,0.04123
840.32028,0.04145
838.26067,0.04170
836.20106,0.04208
834.14145,0.04252
832.08184,0.04276
830.02223,0.04275
827.96262,0.04263
825.90302,0.04249
823.84341,0.04249
821.78380,0.04262
819.72419,0.04257
817.66458,0.04231
815.60497,0.04216
813.54536,0.04216
811.48576,0.04215
809.42615,0.04206
807.36654,0.04194
805.30693,0.04190
803.24732,0.04203
801.18771,0.04229
799.12810,0.04245
797.06850,0.04244
795.00889,0.04240
792.94928,0.04245
790.88967,0.04268
788.83006,0.04320
786.77045,0.04395
784.71085,0.04473
782.65124,0.04540
780.59163,0.04591
778.53202,0.04629
776.47241,0.04662
774.41280,0.04683
772.35319,0.04692
770.29359,0.04709
768.23398,0.04728
766.17437,0.04731
764.11476,0.04725
762.05515,0.04732
759.99554,0.04759
757.93593,0.04789
755.87633,0.04807
753.81672,0.04817
751.75711,0.04826
749.69750,0.04828
747.63789,0.04836
745.57828,0.04858
743.51867,0.04869
741.45907,0.04859
739.39946,0.04843
737.33985,0.04834
735.28024,0.04840
733.22063,0.04858
731.16102,0.04894
729.10142,0.04968
727.04181,0.05074
724.98220,0.05191
722.92259,0.05329
720.86298,0.05497
718.80337,0.05672
716.74376,0.05864
714.68416,0.06091
712.62455,0.06327
710.56494,0.06539
708.50533,0.06716
706.44572,0.06875
704.38611,0.07016
702.32650,0.07131
700.26690,0.07222
698.20729,0.07301
696.14768,0.07362
694.08807,0.07379
692.02846,0.07371
689.96885,0.07374
687.90924,0.07374
685.84964,0.07367
683.79003,0.07368
681.73042,0.07362
679.67081,0.07341
677.61120,0.07316
675.55159,0.07291
673.49199,0.07260
671.43238,0.07218
669.37277,0.07180
667.31316,0.07156
665.25355,0.07138
663.19394,0.07119
661.13433,0.07092
659.07473,0.07067
657.01512,0.07046
654.95551,0.07017
652.89590,0.06995
650.83629,0.06995
648.77668,0.06985
646.71707,0.06951
644.65747,0.06922
642.59786,0.06897
640.53825,0.06865
638.47864,0.06837
636.41903,0.06823
634.35942,0.06831
632.29981,0.06863
630.24021,0.06910
628.18060,0.06981
626.12099,0.07090
624.06138,0.07195
622.00177,0.07268
619.94216,0.07331
617.88256,0.07383
615.82295,0.07421
613.76334,0.07437
611.70373,0.07409
609.64412,0.07347
607.58451,0.07265
605.52490,0.07168
603.46530,0.07085
601.40569,0.07014
599.34608,0.06948
597.28647,0.06916
595.22686,0.06911
593.16725,0.06884
591.10764,0.06831
589.04804,0.06789
586.98843,0.06775
584.92882,0.06765
582.86921,0.06734
580.80960,0.06693
578.74999,0.06664
576.69039,0.06652
574.63078,0.06648
572.57117,0.06642
570.51156,0.06636
568.45195,0.06641
566.39234,0.06657
564.33273,0.06680
562.27313,0.06703
560.21352,0.06713
558.15391,0.06726
556.09430,0.06768
554.03469,0.06810
551.97508,0.06817
549.91547,0.06820
547.85587,0.06845
545.79626,0.06848
543.73665,0.06830
541.67704,0.06826
539.61743,0.06821
537.55782,0.06803
535.49821,0.06782
533.43861,0.06764
531.37900,0.06736
529.31939,0.06704
527.25978,0.06686
525.20017,0.06670
523.14056,0.06643
521.08096,0.06611
519.02135,0.06567
516.96174,0.06523
514.90213,0.06504
512.84252,0.06482
510.78291,0.06435
508.72330,0.06385
506.66370,0.06361
504.60409,0.06364
502.54448,0.06352
500.48487,0.06322
498.42526,0.06299
496.36565,0.06263
494.30604,0.06213
492.24644,0.06181
490.18683,0.06173
488.12722,0.06157
486.06761,0.06100
484.00800,0.06029
481.94839,0.05974
479.88878,0.05911
477.82918,0.05847
475.76957,0.05805
473.70996,0.05776
471.65035,0.05724
469.59074,0.05650
467.53113,0.05580
465.47153,0.05512
463.41192,0.05461
461.35231,0.05434
459.29270,0.05414
457.23309,0.05417
455.17348,0.05459
453.11387,0.05571
451.05427,0.05788
448.99466,0.06048
446.93505,0.06247
444.87544,0.06340
442.81583,0.06337
440.75622,0.06304
438.69661,0.06274
436.63701,0.06194
434.57740,0.06080
432.51779,0.06007
430.45818,0.05967
428.39857,0.05884
426.33896,0.05772
424.27935,0.05716
422.21975,0.05695
420.16014,0.05640
418.10053,0.05532
416.04092,0.05384
413.98131,0.05235
411.92170,0.05152
409.86210,0.05120
407.80249,0.05034
405.74288,0.04915
403.68327,0.04862
401.62366,0.04873
399.56405,0.04890
