3997.70013,0.00145
3995.64052,0.00097
3993.58092,0.00044
3991.52131,0.00007
3989.46170,0.00024
3987.40209,0.00050
3985.34248,0.00027
3983.28287,0.00031
3981.22327,0.00051
3979.16366,0.00031
3977.10405,0.00040
3975.04444,0.00079
3972.98483,0.00085
3970.92522,0.00055
3968.86561,0.00011
3966.80601,0.00000
3964.74640,0.00055
3962.68679,0.00151
3960.62718,0.00195
3958.56757,0.00147
3956.50796,0.00116
3954.44835,0.00158
3952.38875,0.00192
3950.32914,0.00182
3948.26953,0.00186
3946.20992,0.00245
3944.15031,0.00278
3942.09070,0.00232
3940.03109,0.00195
3937.97149,0.00190
3935.91188,0.00151
3933.85227,0.00113
3931.79266,0.00152
3929.73305,0.00204
3927.67344,0.00193
3925.61384,0.00182
3923.55423,0.00214
3921.49462,0.00210
3919.43501,0.00160
3917.37540,0.00149
3915.31579,0.00158
3913.25618,0.00142
3911.19658,0.00113
3909.13697,0.00082
3907.07736,0.00075
3905.01775,0.00099
3902.95814,0.00154
3900.89853,0.00195
3898.83892,0.00139
3896.77932,0.00072
3894.71971,0.00105
3892.66010,0.00198
3890.60049,0.00256
3888.54088,0.00233
3886.48127,0.00189
3884.42166,0.00196
3882.36206,0.00229
3880.30245,0.00255
3878.24284,0.00259
3876.18323,0.00204
3874.12362,0.00122
3872.06401,0.00117
3870.00441,0.00194
3867.94480,0.00249
3865.88519,0.00235
3863.82558,0.00199
3861.76597,0.00210
3859.70636,0.00233
3857.64675,0.00193
3855.58715,0.00112
3853.52754,0.00123
3851.46793,0.00195
3849.40832,0.00171
3847.34871,0.00108
3845.28910,0.00076
3843.22949,0.00120
3841.16989,0.00193
3839.11028,0.00224
3837.05067,0.00237
3834.99106,0.00253
3832.93145,0.00240
3830.87184,0.00151
3828.81223,0.00041
3826.75263,0.00019
3824.69302,0.00101
3822.63341,0.00189
3820.57380,0.00183
3818.51419,0.00108
3816.45458,0.00084
3814.39498,0.00158
3812.33537,0.00219
3810.27576,0.00177
3808.21615,0.00071
3806.15654,0.00016
3804.09693,0.00004
3802.03732,0.00000
3799.97772,0.00076
3797.91811,0.00157
3795.85850,0.00171
3793.79889,0.00204
3791.73928,0.00250
3789.67967,0.00225
3787.62006,0.00164
3785.56046,0.00128
3783.50085,0.00132
3781.44124,0.00142
3779.38163,0.00138
3777.32202,0.00137
3775.26241,0.00144
3773.20280,0.00162
3771.14320,0.00148
3769.08359,0.00114
3767.02398,0.00148
3764.96437,0.00225
3762.90476,0.00269
3760.84515,0.00227
3758.78555,0.00146
3756.72594,0.00137
3754.66633,0.00155
3752.60672,0.00129
3750.54711,0.00101
3748.48750,0.00120
3746.42789,0.00140
3744.36829,0.00147
3742.30868,0.00163
3740.24907,0.00154
3738.18946,0.00089
3736.12985,0.00017
3734.07024,0.00044
3732.01063,0.00097
3729.95103,0.00093
3727.89142,0.00080
3725.83181,0.00100
3723.77220,0.00152
3721.71259,0.00154
3719.65298,0.00089
3717.59337,0.00037
3715.53377,0.00027
3713.47416,0.00021
3711.41455,0.00013
3709.35494,0.00025
3707.29533,0.00034
3705.23572,0.00024
3703.17612,0.00009
3701.11651,0.00004
3699.05690,0.00043
3696.99729,0.00140
3694.93768,0.00202
3692.87807,0.00184
3690.81846,0.00133
3688.75886,0.00085
3686.69925,0.00066
3684.63964,0.00091
3682.58003,0.00098
3680.52042,0.00029
3678.46081,0.00000
3676.40120,0.00059
3674.34160,0.00114
3672.28199,0.00156
3670.22238,0.00193
3668.16277,0.00190
3666.10316,0.00130
3664.04355,0.00075
3661.98394,0.00104
3659.92434,0.00155
3657.86473,0.00156
3655.80512,0.00157
3653.74551,0.00134
3651.68590,0.00097
3649.62629,0.00149
3647.56669,0.00236
3645.50708,0.00242
3643.44747,0.00217
3641.38786,0.00225
3639.32825,0.00284
3637.26864,0.00357
3635.20903,0.00336
3633.14943,0.00225
3631.08982,0.00183
3629.03021,0.00283
3626.97060,0.00368
3624.91099,0.00322
3622.85138,0.00277
3620.79177,0.00348
3618.73217,0.00466
3616.67256,0.00493
3614.61295,0.00473
3612.55334,0.00476
3610.49373,0.00471
3608.43412,0.00476
3606.37451,0.00529
3604.31491,0.00559
3602.25530,0.00575
3600.19569,0.00649
3598.13608,0.00718
3596.07647,0.00743
3594.01686,0.00772
3591.95726,0.00798
3589.89765,0.00801
3587.83804,0.00816
3585.77843,0.00840
3583.71882,0.00799
3581.65921,0.00740
3579.59960,0.00748
3577.54000,0.00806
3575.48039,0.00846
3573.42078,0.00842
3571.36117,0.00842
3569.30156,0.00895
3567.24195,0.00986
3565.18234,0.01028
3563.12274,0.00992
3561.06313,0.00984
3559.00352,0.01058
3556.94391,0.01135
3554.88430,0.01175
3552.82469,0.01205
3550.76508,0.01215
3548.70548,0.01241
3546.64587,0.01338
3544.58626,0.01418
3542.52665,0.01410
3540.46704,0.01391
3538.40743,0.01400
3536.34783,0.01446
3534.28822,0.01527
3532.22861,0.01579
3530.16900,0.01599
3528.10939,0.01640
3526.04978,0.01696
3523.99017,0.01725
3521.93057,0.01707
3519.87096,0.01707
3517.81135,0.01732
3515.75174,0.01736
3513.69213,0.01760
3511.63252,0.01816
3509.57291,0.01858
3507.51331,0.01860
3505.45370,0.01854
3503.39409,0.01904
3501.33448,0.01987
3499.27487,0.02018
3497.21526,0.01994
3495.15565,0.01985
3493.09605,0.02035
3491.03644,0.02113
3488.97683,0.02190
3486.91722,0.02249
3484.85761,0.02235
3482.79800,0.02192
3480.73840,0.02193
3478.67879,0.02211
3476.61918,0.02231
3474.55957,0.02237
3472.49996,0.02231
3470.44035,0.02263
3468.38074,0.02291
3466.32114,0.02253
3464.26153,0.02231
3462.20192,0.02294
3460.14231,0.02371
3458.08270,0.02389
3456.02309,0.02382
3453.96348,0.02390
3451.90388,0.02413
3449.84427,0.02421
3447.78466,0.02429
3445.72505,0.02477
3443.66544,0.02508
3441.60583,0.02519
3439.54622,0.02542
3437.48662,0.02534
3435.42701,0.02491
3433.36740,0.02507
3431.30779,0.02587
3429.24818,0.02621
3427.18857,0.02602
3425.12897,0.02583
3423.06936,0.02596
3421.00975,0.02650
3418.95014,0.02727
3416.89053,0.02822
3414.83092,0.02885
3412.77131,0.02884
3410.71171,0.02852
3408.65210,0.02807
3406.59249,0.02783
3404.53288,0.02819
3402.47327,0.02902
3400.41366,0.03003
3398.35405,0.03071
3396.29445,0.03102
3394.23484,0.03134
3392.17523,0.03163
3390.11562,0.03186
3388.05601,0.03206
3385.99640,0.03220
3383.93679,0.03238
3381.87719,0.03259
3379.81758,0.03296
3377.75797,0.03368
3375.69836,0.03407
3373.63875,0.03387
3371.57914,0.03376
3369.51954,0.03386
3367.45993,0.03441
3365.40032,0.03556
3363.34071,0.03652
3361.28110,0.03681
3359.22149,0.03682
3357.16188,0.03713
3355.10228,0.03779
3353.04267,0.03869
3350.98306,0.03966
3348.92345,0.04034
3346.86384,0.04100
3344.80423,0.04214
3342.74462,0.04357
3340.68502,0.04470
3338.62541,0.04554
3336.56580,0.04659
3334.50619,0.04807
3332.44658,0.04993
3330.38697,0.05210
3328.32736,0.05425
3326.26776,0.05616
3324.20815,0.05836
3322.14854,0.06063
3320.08893,0.06245
3318.02932,0.06452
3315.96971,0.06723
3313.91011,0.07027
3311.85050,0.07343
3309.79089,0.07648
3307.73128,0.07932
3305.67167,0.08224
3303.61206,0.08524
3301.55245,0.08802
3299.49285,0.09089
3297.43324,0.09425
3295.37363,0.09775
3293.31402,0.10073
3291.25441,0.10329
3289.19480,0.10612
3287.13519,0.10909
3285.07559,0.11156
3283.01598,0.11332
3280.95637,0.11460
3278.89676,0.11573
3276.83715,0.11664
3274.77754,0.11687
3272.71793,0.11664
3270.65833,0.11643
3268.59872,0.11606
3266.53911,0.11529
3264.47950,0.11432
3262.41989,0.11326
3260.36028,0.11167
3258.30068,0.10973
3256.24107,0.10789
3254.18146,0.10577
3252.12185,0.10344
3250.06224,0.10172
3248.00263,0.10048
3245.94302,0.09901
3243.88342,0.09728
3241.82381,0.09557
3239.76420,0.09394
3237.70459,0.09253
3235.64498,0.09119
3233.58537,0.08970
3231.52576,0.08831
3229.46616,0.08703
3227.40655,0.08558
3225.34694,0.08439
3223.28733,0.08408
3221.22772,0.08403
3219.16811,0.08326
3217.10850,0.08193
3215.04890,0.08063
3212.98929,0.07927
3210.92968,0.07787
3208.87007,0.07681
3206.81046,0.07589
3204.75085,0.07480
3202.69125,0.07382
3200.63164,0.07313
3198.57203,0.07234
3196.51242,0.07131
3194.45281,0.07049
3192.39320,0.06996
3190.33359,0.06943
3188.27399,0.06858
3186.21438,0.06747
3184.15477,0.06665
3182.09516,0.06618
3180.03555,0.06539
3177.97594,0.06405
3175.91633,0.06290
3173.85673,0.06240
3171.79712,0.06187
3169.73751,0.06095
3167.67790,0.06024
3165.61829,0.05990
3163.55868,0.05932
3161.49907,0.05815
3159.43947,0.05688
3157.37986,0.05606
3155.32025,0.05564
3153.26064,0.05535
3151.20103,0.05499
3149.14142,0.05455
3147.08182,0.05394
3145.02221,0.05320
3142.96260,0.05281
3140.90299,0.05271
3138.84338,0.05237
3136.78377,0.05179
3134.72416,0.05137
3132.66456,0.05118
3130.60495,0.05087
3128.54534,0.05026
3126.48573,0.04967
3124.42612,0.04948
3122.36651,0.04962
3120.30690,0.04959
3118.24730,0.04919
3116.18769,0.04865
3114.12808,0.04840
3112.06847,0.04862
3110.00886,0.04901
3107.94925,0.04929
3105.88965,0.04932
3103.83004,0.04927
3101.77043,0.04933
3099.71082,0.04932
3097.65121,0.04951
3095.59160,0.05017
3093.53199,0.05065
3091.47239,0.05066
3089.41278,0.05090
3087.35317,0.05145
3085.29356,0.05174
3083.23395,0.05161
3081.17434,0.05136
3079.11473,0.05130
3077.05513,0.05157
3074.99552,0.05194
3072.93591,0.05187
3070.87630,0.05170
3068.81669,0.05189
3066.75708,0.05203
3064.69747,0.05189
3062.63787,0.05168
3060.57826,0.05163
3058.51865,0.05160
3056.45904,0.05124
3054.39943,0.05070
3052.33982,0.05044
3050.28022,0.05040
3048.22061,0.05009
3046.16100,0.04944
3044.10139,0.04866
3042.04178,0.04805
3039.98217,0.04761
3037.92256,0.04704
3035.86296,0.04654
3033.80335,0.04631
3031.74374,0.04592
3029.68413,0.04538
3027.62452,0.04490
3025.56491,0.04453
3023.50530,0.04439
3021.44570,0.04419
3019.38609,0.04388
3017.32648,0.04351
3015.26687,0.04316
3013.20726,0.04300
3011.14765,0.04262
3009.08804,0.04206
3007.02844,0.04181
3004.96883,0.04169
3002.90922,0.04152
3000.84961,0.04155
2998.79000,0.04194
2996.73039,0.04223
2994.67079,0.04209
2992.61118,0.04210
2990.55157,0.04257
2988.49196,0.04297
2986.43235,0.04322
2984.37274,0.04358
2982.31313,0.04393
2980.25353,0.04411
2978.19392,0.04438
2976.13431,0.04501
2974.07470,0.04568
2972.01509,0.04593
2969.95548,0.04593
2967.89587,0.04619
2965.83627,0.04675
2963.77666,0.04727
2961.71705,0.04742
2959.65744,0.04713
2957.59783,0.04673
2955.53822,0.04645
2953.47861,0.04620
2951.41901,0.04592
2949.35940,0.04574
2947.29979,0.04588
2945.24018,0.04637
2943.18057,0.04703
2941.12096,0.04786
2939.06136,0.04874
2937.00175,0.04977
2934.94214,0.05101
2932.88253,0.05231
2930.82292,0.05364
2928.76331,0.05477
2926.70370,0.05543
2924.64410,0.05562
2922.58449,0.05521
2920.52488,0.05434
2918.46527,0.05326
2916.40566,0.05196
2914.34605,0.05078
2912.28644,0.05020
2910.22684,0.04968
2908.16723,0.04891
2906.10762,0.04832
2904.04801,0.04779
2901.98840,0.04709
2899.92879,0.04651
2897.86918,0.04638
2895.80958,0.04639
2893.74997,0.04600
2891.69036,0.04545
2889.63075,0.04517
2887.57114,0.04482
2885.51153,0.04434
2883.45193,0.04412
2881.39232,0.04403
2879.33271,0.04388
2877.27310,0.04400
2875.21349,0.04455
2873.15388,0.04500
2871.09427,0.04497
2869.03467,0.04468
2866.97506,0.04453
2864.91545,0.04454
2862.85584,0.04446
2860.79623,0.04444
2858.73662,0.04477
2856.67701,0.04519
2854.61741,0.04538
2852.55780,0.04534
2850.49819,0.04509
2848.43858,0.04451
2846.37897,0.04346
2844.31936,0.04221
2842.25975,0.04133
2840.20015,0.04088
2838.14054,0.04039
2836.08093,0.03980
2834.02132,0.03957
2831.96171,0.03956
2829.90210,0.03928
2827.84250,0.03880
2825.78289,0.03836
2823.72328,0.03801
2821.66367,0.03770
2819.60406,0.03752
2817.54445,0.03756
2815.48484,0.03759
2813.42524,0.03757
2811.36563,0.03745
2809.30602,0.03712
2807.24641,0.03680
2805.18680,0.03665
2803.12719,0.03666
2801.06758,0.03677
2799.00798,0.03679
2796.94837,0.03666
2794.88876,0.03643
2792.82915,0.03631
2790.76954,0.03642
2788.70993,0.03640
2786.65032,0.03625
2784.59072,0.03628
2782.53111,0.03623
2780.47150,0.03600
2778.41189,0.03592
2776.35228,0.03594
2774.29267,0.03575
2772.23307,0.03544
2770.17346,0.03528
2768.11385,0.03520
2766.05424,0.03499
2763.99463,0.03479
2761.93502,0.03476
2759.87541,0.03466
2757.81581,0.03454
2755.75620,0.03458
2753.69659,0.03449
2751.63698,0.03420
2749.57737,0.03398
2747.51776,0.03386
2745.45815,0.03386
2743.39855,0.03392
2741.33894,0.03387
2739.27933,0.03362
2737.21972,0.03322
2735.16011,0.03296
2733.10050,0.03294
2731.04089,0.03298
2728.98129,0.03296
2726.92168,0.03274
2724.86207,0.03246
2722.80246,0.03246
2720.74285,0.03243
2718.68324,0.03218
2716.62364,0.03209
2714.56403,0.03220
2712.50442,0.03235
2710.44481,0.03232
2708.38520,0.03203
2706.32559,0.03183
2704.26598,0.03180
2702.20638,0.03166
2700.14677,0.03147
2698.08716,0.03151
2696.02755,0.03173
2693.96794,0.03168
2691.90833,0.03126
2689.84872,0.03092
2687.78912,0.03082
2685.72951,0.03086
2683.66990,0.03086
2681.61029,0.03078
2679.55068,0.03064
2677.49107,0.03055
2675.43146,0.03057
2673.37186,0.03055
2671.31225,0.03048
2669.25264,0.03057
2667.19303,0.03064
2665.13342,0.03045
2663.07381,0.03036
2661.01421,0.03063
2658.95460,0.03086
2656.89499,0.03058
2654.83538,0.03014
2652.77577,0.02998
2650.71616,0.02993
2648.65655,0.02993
2646.59695,0.02995
2644.53734,0.02984
2642.47773,0.02955
2640.41812,0.02906
2638.35851,0.02870
2636.29890,0.02870
2634.23929,0.02889
2632.17969,0.02904
2630.12008,0.02902
2628.06047,0.02896
2626.00086,0.02893
2623.94125,0.02888
2621.88164,0.02877
2619.82203,0.02843
2617.76243,0.02793
2615.70282,0.02768
2613.64321,0.02774
2611.58360,0.02780
2609.52399,0.02777
2607.46438,0.02784
2605.40478,0.02790
2603.34517,0.02776
2601.28556,0.02748
2599.22595,0.02707
2597.16634,0.02669
2595.10673,0.02659
2593.04712,0.02674
2590.98752,0.02706
2588.92791,0.02737
2586.86830,0.02750
2584.80869,0.02742
2582.74908,0.02696
2580.68947,0.02617
2578.62986,0.02566
2576.57026,0.02587
2574.51065,0.02629
2572.45104,0.02640
2570.39143,0.02614
2568.33182,0.02562
2566.27221,0.02540
2564.21260,0.02568
2562.15300,0.02576
2560.09339,0.02553
2558.03378,0.02529
2555.97417,0.02502
2553.91456,0.02484
2551.85495,0.02489
2549.79535,0.02521
2547.73574,0.02554
2545.67613,0.02540
2543.61652,0.02497
2541.55691,0.02486
2539.49730,0.02477
2537.43769,0.02433
2535.37809,0.02406
2533.31848,0.02406
2531.25887,0.02390
2529.19926,0.02366
2527.13965,0.02356
2525.08004,0.02357
2523.02043,0.02370
2520.96083,0.02391
2518.90122,0.02386
2516.84161,0.02369
2514.78200,0.02398
2512.72239,0.02431
2510.66278,0.02401
2508.60317,0.02353
2506.54357,0.02333
2504.48396,0.02337
2502.42435,0.02345
2500.36474,0.02365
2498.30513,0.02399
2496.24552,0.02408
2494.18592,0.02393
2492.12631,0.02388
2490.06670,0.02370
2488.00709,0.02337
2485.94748,0.02328
2483.88787,0.02315
2481.82826,0.02276
2479.76866,0.02264
2477.70905,0.02302
2475.64944,0.02351
2473.58983,0.02357
2471.53022,0.02313
2469.47061,0.02264
2467.41100,0.02230
2465.35140,0.02222
2463.29179,0.02265
2461.23218,0.02301
2459.17257,0.02273
2457.11296,0.02245
2455.05335,0.02292
2452.99374,0.02369
2450.93414,0.02380
2448.87453,0.02337
2446.81492,0.02306
2444.75531,0.02285
2442.69570,0.02256
2440.63609,0.02241
2438.57649,0.02234
2436.51688,0.02239
2434.45727,0.02251
2432.39766,0.02238
2430.33805,0.02233
2428.27844,0.02252
2426.21883,0.02235
2424.15923,0.02184
2422.09962,0.02156
2420.04001,0.02161
2417.98040,0.02186
2415.92079,0.02220
2413.86118,0.02251
2411.80157,0.02250
2409.74197,0.02200
2407.68236,0.02156
2405.62275,0.02172
2403.56314,0.02202
2401.50353,0.02202
2399.44392,0.02212
2397.38431,0.02243
2395.32471,0.02254
2393.26510,0.02255
2391.20549,0.02277
2389.14588,0.02291
2387.08627,0.02275
2385.02666,0.02243
2382.96706,0.02184
2380.90745,0.02136
2378.84784,0.02166
2376.78823,0.02230
2374.72862,0.02256
2372.66901,0.02254
2370.60940,0.02230
2368.54980,0.02159
2366.49019,0.02086
2364.43058,0.02066
2362.37097,0.02116
2360.31136,0.02210
2358.25175,0.02246
2356.19214,0.02250
2354.13254,0.02284
2352.07293,0.02303
2350.01332,0.02282
2347.95371,0.02252
2345.89410,0.02236
2343.83449,0.02209
2341.77488,0.02190
2339.71528,0.02219
2337.65567,0.02254
2335.59606,0.02274
2333.53645,0.02293
2331.47684,0.02281
2329.41723,0.02247
2327.35763,0.02281
2325.29802,0.02356
2323.23841,0.02339
2321.17880,0.02252
2319.11919,0.02233
2317.05958,0.02239
2314.99997,0.02206
2312.94037,0.02189
2310.88076,0.02178
2308.82115,0.02172
2306.76154,0.02204
2304.70193,0.02221
2302.64232,0.02199
2300.58271,0.02154
2298.52311,0.02115
2296.46350,0.02140
2294.40389,0.02192
2292.34428,0.02191
2290.28467,0.02155
2288.22506,0.02135
2286.16545,0.02125
2284.10585,0.02114
2282.04624,0.02117
2279.98663,0.02106
2277.92702,0.02046
2275.86741,0.01972
2273.80780,0.01919
2271.74820,0.01867
2269.68859,0.01824
2267.62898,0.01837
2265.56937,0.01874
2263.50976,0.01860
2261.45015,0.01794
2259.39054,0.01731
2257.33094,0.01702
2255.27133,0.01681
2253.21172,0.01651
2251.15211,0.01638
2249.09250,0.01641
2247.03289,0.01666
2244.97328,0.01692
2242.91368,0.01684
2240.85407,0.01697
2238.79446,0.01725
2236.73485,0.01739
2234.67524,0.01729
2232.61563,0.01690
2230.55602,0.01695
2228.49642,0.01696
2226.43681,0.01626
2224.37720,0.01606
2222.31759,0.01710
2220.25798,0.01767
2218.19837,0.01663
2216.13877,0.01578
2214.07916,0.01593
2212.01955,0.01612
2209.95994,0.01592
2207.90033,0.01543
2205.84072,0.01531
2203.78111,0.01570
2201.72151,0.01595
2199.66190,0.01533
2197.60229,0.01415
2195.54268,0.01380
2193.48307,0.01485
2191.42346,0.01595
2189.36385,0.01572
2187.30425,0.01480
2185.24464,0.01442
2183.18503,0.01434
2181.12542,0.01397
2179.06581,0.01400
2177.00620,0.01466
2174.94659,0.01471
2172.88699,0.01365
2170.82738,0.01263
2168.76777,0.01268
2166.70816,0.01323
2164.64855,0.01369
2162.58894,0.01400
2160.52934,0.01297
2158.46973,0.01084
2156.41012,0.00948
2154.35051,0.00915
2152.29090,0.00952
2150.23129,0.01002
2148.17168,0.01062
2146.11208,0.01136
2144.05247,0.01176
2141.99286,0.01201
2139.93325,0.01215
2137.87364,0.01178
2135.81403,0.01127
2133.75442,0.01172
2131.69482,0.01307
2129.63521,0.01421
2127.57560,0.01457
2125.51599,0.01451
2123.45638,0.01468
2121.39677,0.01499
2119.33716,0.01481
2117.27756,0.01438
2115.21795,0.01466
2113.15834,0.01543
2111.09873,0.01566
2109.03912,0.01535
2106.97951,0.01530
2104.91991,0.01545
2102.86030,0.01516
2100.80069,0.01485
2098.74108,0.01465
2096.68147,0.01427
2094.62186,0.01423
2092.56225,0.01456
2090.50265,0.01483
2088.44304,0.01496
2086.38343,0.01488
2084.32382,0.01472
2082.26421,0.01474
2080.20460,0.01475
2078.14499,0.01459
2076.08539,0.01481
2074.02578,0.01512
2071.96617,0.01431
2069.90656,0.01318
2067.84695,0.01305
2065.78734,0.01334
2063.72773,0.01340
2061.66813,0.01320
2059.60852,0.01275
2057.54891,0.01233
2055.48930,0.01248
2053.42969,0.01298
2051.37008,0.01294
2049.31048,0.01216
2047.25087,0.01123
2045.19126,0.01088
2043.13165,0.01120
2041.07204,0.01155
2039.01243,0.01134
2036.95282,0.01070
2034.89322,0.01037
2032.83361,0.01023
2030.77400,0.00907
2028.71439,0.00745
2026.65478,0.00694
2024.59517,0.00710
2022.53556,0.00742
2020.47596,0.00789
2018.41635,0.00823
2016.35674,0.00870
2014.29713,0.00956
2012.23752,0.00994
2010.17791,0.00920
2008.11830,0.00846
2006.05870,0.00877
2003.99909,0.00934
2001.93948,0.00924
1999.87987,0.00904
1997.82026,0.00936
1995.76065,0.00994
1993.70105,0.01030
1991.64144,0.00976
1989.58183,0.00904
1987.52222,0.00920
1985.46261,0.00971
1983.40300,0.01048
1981.34339,0.01095
1979.28379,0.01017
1977.22418,0.00894
1975.16457,0.00826
1973.10496,0.00782
1971.04535,0.00721
1968.98574,0.00715
1966.92613,0.00784
1964.86653,0.00860
1962.80692,0.00908
1960.74731,0.00912
1958.68770,0.00905
1956.62809,0.00878
1954.56848,0.00831
1952.50887,0.00836
1950.44927,0.00874
1948.38966,0.00895
1946.33005,0.00893
1944.27044,0.00878
1942.21083,0.00888
1940.15122,0.00927
1938.09162,0.00964
1936.03201,0.00990
1933.97240,0.01017
1931.91279,0.01053
1929.85318,0.01062
1927.79357,0.01026
1925.73396,0.00986
1923.67436,0.00961
1921.61475,0.00930
1919.55514,0.00918
1917.49553,0.00955
1915.43592,0.00983
1913.37631,0.00962
1911.31670,0.00957
1909.25710,0.00997
1907.19749,0.01036
1905.13788,0.01044
1903.07827,0.01010
1901.01866,0.00956
1898.95905,0.00940
1896.89944,0.00974
1894.83984,0.01007
1892.78023,0.00977
1890.72062,0.00901
1888.66101,0.00854
1886.60140,0.00865
1884.54179,0.00887
1882.48219,0.00893
1880.42258,0.00879
1878.36297,0.00871
1876.30336,0.00888
1874.24375,0.00902
1872.18414,0.00892
1870.12453,0.00881
1868.06493,0.00875
1866.00532,0.00853
1863.94571,0.00827
1861.88610,0.00829
1859.82649,0.00853
1857.76688,0.00860
1855.70727,0.00834
1853.64767,0.00794
1851.58806,0.00765
1849.52845,0.00757
1847.46884,0.00762
1845.40923,0.00772
1843.34962,0.00758
1841.29002,0.00713
1839.23041,0.00686
1837.17080,0.00696
1835.11119,0.00701
1833.05158,0.00686
1830.99197,0.00678
1828.93236,0.00670
1826.87276,0.00661
1824.81315,0.00668
1822.75354,0.00665
1820.69393,0.00647
1818.63432,0.00641
1816.57471,0.00640
1814.51510,0.00624
1812.45550,0.00591
1810.39589,0.00566
1808.33628,0.00567
1806.27667,0.00577
1804.21706,0.00581
1802.15745,0.00571
1800.09784,0.00559
1798.03824,0.00552
1795.97863,0.00539
1793.91902,0.00511
1791.85941,0.00489
1789.79980,0.00490
1787.74019,0.00498
1785.68059,0.00487
1783.62098,0.00447
1781.56137,0.00409
1779.50176,0.00388
1777.44215,0.00371
1775.38254,0.00354
1773.32293,0.00353
1771.26333,0.00357
1769.20372,0.00347
1767.14411,0.00319
1765.08450,0.00278
1763.02489,0.00246
1760.96528,0.00225
1758.90567,0.00212
1756.84607,0.00217
1754.78646,0.00232
1752.72685,0.00227
1750.66724,0.00203
1748.60763,0.00177
1746.54802,0.00164
1744.48841,0.00147
1742.42881,0.00124
1740.36920,0.00121
1738.30959,0.00120
1736.24998,0.00089
1734.19037,0.00054
1732.13076,0.00057
1730.07116,0.00059
1728.01155,0.00049
1725.95194,0.00037
1723.89233,0.00016
1721.83272,0.00000
1719.77311,0.00012
1717.71350,0.00063
1715.65390,0.00133
1713.59429,0.00212
1711.53468,0.00334
1709.47507,0.00538
1707.41546,0.00868
1705.35585,0.01379
1703.29624,0.01944
1701.23664,0.02515
1699.17703,0.03008
1697.11742,0.03153
1695.05781,0.03098
1692.99820,0.03036
1690.93859,0.03007
1688.87898,0.03021
1686.81938,0.03064
1684.75977,0.03165
1682.70016,0.03362
1680.64055,0.03564
1678.58094,0.03740
1676.52133,0.03923
1674.46173,0.04149
1672.40212,0.04371
1670.34251,0.04611
1668.28290,0.04906
1666.22329,0.05162
1664.16368,0.05401
1662.10407,0.05710
1660.04447,0.06029
1657.98486,0.06292
1655.92525,0.06527
1653.86564,0.06885
1651.80603,0.07344
1649.74642,0.07585
1647.68681,0.07830
1645.62721,0.08231
1643.56760,0.08606
1641.50799,0.08938
1639.44838,0.09279
1637.38877,0.09656
1635.32916,0.10155
1633.26955,0.10625
1631.20995,0.10983
1629.15034,0.11352
1627.09073,0.11725
1625.03112,0.12048
1622.97151,0.12338
1620.91190,0.12525
1618.85230,0.12571
1616.79269,0.12527
1614.73308,0.12378
1612.67347,0.12122
1610.61386,0.11782
1608.55425,0.11380
1606.49464,0.10926
1604.43504,0.10422
1602.37543,0.09896
1600.31582,0.09393
1598.25621,0.08947
1596.19660,0.08543
1594.13699,0.08154
1592.07738,0.07777
1590.01778,0.07409
1587.95817,0.07065
1585.89856,0.06774
1583.83895,0.06537
1581.77934,0.06342
1579.71973,0.06186
1577.66012,0.06064
1575.60052,0.05993
1573.54091,0.05980
1571.48130,0.05995
1569.42169,0.06057
1567.36208,0.06163
1565.30247,0.06303
1563.24287,0.06451
1561.18326,0.06591
1559.12365,0.06851
1557.06404,0.07162
1555.00443,0.07346
1552.94482,0.07503
1550.88521,0.07671
1548.82561,0.07864
1546.76600,0.08067
1544.70639,0.08274
1542.64678,0.08498
1540.58717,0.08802
1538.52756,0.09158
1536.46795,0.09393
1534.40835,0.09625
1532.34874,0.09915
1530.28913,0.10165
1528.22952,0.10408
1526.16991,0.10690
1524.11030,0.10964
1522.05069,0.11284
1519.99109,0.11660
1517.93148,0.12014
1515.87187,0.12373
1513.81226,0.12652
1511.75265,0.12791
1509.69304,0.12821
1507.63344,0.12784
1505.57383,0.12703
1503.51422,0.12556
1501.45461,0.12360
1499.39500,0.12132
1497.33539,0.11859
1495.27578,0.11540
1493.21618,0.11223
1491.15657,0.10875
1489.09696,0.10455
1487.03735,0.10040
1484.97774,0.09678
1482.91813,0.09344
1480.85852,0.09013
1478.79892,0.08696
1476.73931,0.08413
1474.67970,0.08178
1472.62009,0.07973
1470.56048,0.07780
1468.50087,0.07616
1466.44126,0.07470
1464.38166,0.07334
1462.32205,0.07225
1460.26244,0.07154
1458.20283,0.07175
1456.14322,0.07340
1454.08361,0.07533
1452.02401,0.07735
1449.96440,0.07970
1447.90479,0.08193
1445.84518,0.08358
1443.78557,0.08453
1441.72596,0.08502
1439.66635,0.08511
1437.60675,0.08458
1435.54714,0.08311
1433.48753,0.08101
1431.42792,0.07849
1429.36831,0.07581
1427.30870,0.07356
1425.24909,0.07179
1423.18949,0.07030
1421.12988,0.06907
1419.07027,0.06829
1417.01066,0.06808
1414.95105,0.06807
1412.89144,0.06819
1410.83183,0.06848
1408.77223,0.06878
1406.71262,0.06893
1404.65301,0.06887
1402.59340,0.06868
1400.53379,0.06827
1398.47418,0.06759
1396.41458,0.06691
1394.35497,0.06640
1392.29536,0.06594
1390.23575,0.06547
1388.17614,0.06498
1386.11653,0.06440
1384.05692,0.06379
1381.99732,0.06327
1379.93771,0.06286
1377.87810,0.06250
1375.81849,0.06214
1373.75888,0.06192
1371.69927,0.06189
1369.63966,0.06188
1367.58006,0.06173
1365.52045,0.06121
1363.46084,0.06026
1361.40123,0.05901
1359.34162,0.05766
1357.28201,0.05643
1355.22240,0.05544
1353.16280,0.05461
1351.10319,0.05386
1349.04358,0.05336
1346.98397,0.05307
1344.92436,0.05280
1342.86475,0.05261
1340.80515,0.05254
1338.74554,0.05252
1336.68593,0.05251
1334.62632,0.05239
1332.56671,0.05211
1330.50710,0.05167
1328.44749,0.05112
1326.38789,0.05050
1324.32828,0.04986
1322.26867,0.04927
1320.20906,0.04879
1318.14945,0.04838
1316.08984,0.04792
1314.03023,0.04746
1311.97063,0.04711
1309.91102,0.04680
1307.85141,0.04643
1305.79180,0.04607
1303.73219,0.04576
1301.67258,0.04544
1299.61297,0.04499
1297.55337,0.04448
1295.49376,0.04404
1293.43415,0.04368
1291.37454,0.04330
1289.31493,0.04288
1287.25532,0.04255
1285.19572,0.04248
1283.13611,0.04253
1281.07650,0.04263
1279.01689,0.04289
1276.95728,0.04340
1274.89767,0.04432
1272.83806,0.04565
1270.77846,0.04716
1268.71885,0.04869
1266.65924,0.05025
1264.59963,0.05161
1262.54002,0.05257
1260.48041,0.05314
1258.42080,0.05333
1256.36120,0.05325
1254.30159,0.05314
1252.24198,0.05310
1250.18237,0.05319
1248.12276,0.05352
1246.06315,0.05402
1244.00354,0.05463
1241.94394,0.05535
1239.88433,0.05624
1237.82472,0.05747
1235.76511,0.05897
1233.70550,0.06050
1231.64589,0.06191
1229.58629,0.06306
1227.52668,0.06369
1225.46707,0.06378
1223.40746,0.06349
1221.34785,0.06295
1219.28824,0.06222
1217.22863,0.06137
1215.16903,0.06044
1213.10942,0.05929
1211.04981,0.05783
1208.99020,0.05619
1206.93059,0.05447
1204.87098,0.05272
1202.81137,0.05096
1200.75177,0.04929
1198.69216,0.04776
1196.63255,0.04626
1194.57294,0.04485
1192.51333,0.04364
1190.45372,0.04259
1188.39411,0.04166
1186.33451,0.04086
1184.27490,0.04016
1182.21529,0.03962
1180.15568,0.03942
1178.09607,0.03961
1176.03646,0.04014
1173.97686,0.04093
1171.91725,0.04181
1169.85764,0.04253
1167.79803,0.04302
1165.73842,0.04343
1163.67881,0.04375
1161.61920,0.04387
1159.55960,0.04368
1157.49999,0.04323
1155.44038,0.04267
1153.38077,0.04190
1151.32116,0.04097
1149.26155,0.04004
1147.20194,0.03906
1145.14234,0.03790
1143.08273,0.03670
1141.02312,0.03567
1138.96351,0.03478
1136.90390,0.03400
1134.84429,0.03336
1132.78468,0.03280
1130.72508,0.03228
1128.66547,0.03180
1126.60586,0.03145
1124.54625,0.03117
1122.48664,0.03083
1120.42703,0.03047
1118.36743,0.03012
1116.30782,0.02979
1114.24821,0.02954
1112.18860,0.02934
1110.12899,0.02920
1108.06938,0.02914
1106.00977,0.02905
1103.95017,0.02893
1101.89056,0.02868
1099.83095,0.02820
1097.77134,0.02763
1095.71173,0.02717
1093.65212,0.02689
1091.59251,0.02679
1089.53291,0.02685
1087.47330,0.02700
1085.41369,0.02732
1083.35408,0.02793
1081.29447,0.02873
1079.23486,0.02959
1077.17525,0.03048
1075.11565,0.03133
1073.05604,0.03208
1070.99643,0.03266
1068.93682,0.03312
1066.87721,0.03354
1064.81760,0.03391
1062.75800,0.03414
1060.69839,0.03418
1058.63878,0.03404
1056.57917,0.03380
1054.51956,0.03342
1052.45995,0.03295
1050.40034,0.03247
1048.34074,0.03199
1046.28113,0.03157
1044.22152,0.03130
1042.16191,0.03101
1040.10230,0.03068
1038.04269,0.03036
1035.98308,0.02995
1033.92348,0.02949
1031.86387,0.02905
1029.80426,0.02848
1027.74465,0.02779
1025.68504,0.02710
1023.62543,0.02653
1021.56582,0.02609
1019.50622,0.02576
1017.44661,0.02559
1015.38700,0.02549
1013.32739,0.02537
1011.26778,0.02531
1009.20817,0.02526
1007.14857,0.02525
1005.08896,0.02537
1003.02935,0.02572
1000.96974,0.02628
998.91013,0.02683
996.85052,0.02714
994.79091,0.02708
992.73131,0.02653
990.67170,0.02562
988.61209,0.02470
986.55248,0.02398
984.49287,0.02359
982.43326,0.02365
980.37365,0.02404
978.31405,0.02446
976.25444,0.02478
974.19483,0.02487
972.13522,0.02459
970.07561,0.02400
968.01600,0.02323
965.95639,0.02229
963.89679,0.02137
961.83718,0.02063
959.77757,0.02002
957.71796,0.01948
955.65835,0.01904
953.59874,0.01866
951.53914,0.01829
949.47953,0.01783
947.41992,0.01729
945.36031,0.01688
943.30070,0.01655
941.24109,0.01618
939.18148,0.01591
937.12188,0.01579
935.06227,0.01570
933.00266,0.01557
930.94305,0.01543
928.88344,0.01531
926.82383,0.01524
924.76422,0.01506
922.70462,0.01461
920.64501,0.01402
918.58540,0.01352
916.52579,0.01311
914.46618,0.01273
912.40657,0.01240
910.34696,0.01211
908.28736,0.01178
906.22775,0.01147
904.16814,0.01126
902.10853,0.01108
900.04892,0.01082
897.98931,0.01056
895.92971,0.01046
893.87010,0.01034
891.81049,0.01002
889.75088,0.00967
887.69127,0.00948
885.63166,0.00943
883.57205,0.00928
881.51245,0.00902
879.45284,0.00889
877.39323,0.00879
875.33362,0.00856
873.27401,0.00830
871.21440,0.00812
869.15479,0.00787
867.09519,0.00751
865.03558,0.00729
862.97597,0.00735
860.91636,0.00737
858.85675,0.00720
856.79714,0.00709
854.73753,0.00726
852.67793,0.00757
850.61832,0.00774
848.55871,0.00759
846.49910,0.00723
844.43949,0.00686
842.37988,0.00653
840.32028,0.00636
838.26067,0.00646
836.20106,0.00670
834.14145,0.00687
832.08184,0.00705
830.02223,0.00731
827.96262,0.00743
825.90302,0.00729
823.84341,0.00698
821.78380,0.00666
819.72419,0.00640
817.66458,0.00621
815.60497,0.00609
813.54536,0.00601
811.48576,0.00597
809.42615,0.00588
807.36654,0.00554
805.30693,0.00520
803.24732,0.00508
801.18771,0.00488
799.12810,0.00454
797.06850,0.00436
795.00889,0.00438
792.94928,0.00447
790.88967,0.00457
788.83006,0.00468
786.77045,0.00479
784.71085,0.00486
782.65124,0.00491
780.59163,0.00490
778.53202,0.00489
776.47241,0.00494
774.41280,0.00518
772.35319,0.00564
770.29359,0.00608
768.23398,0.00629
766.17437,0.00636
764.11476,0.00644
762.05515,0.00654
759.99554,0.00669
757.93593,0.00676
755.87633,0.00673
753.81672,0.00678
751.75711,0.00703
749.69750,0.00735
747.63789,0.00761
745.57828,0.00787
743.51867,0.00839
741.45907,0.00901
739.39946,0.00952
737.33985,0.01007
735.28024,0.01080
733.22063,0.01158
731.16102,0.01229
729.10142,0.01285
727.04181,0.01337
724.98220,0.01400
722.92259,0.01460
720.86298,0.01514
718.80337,0.01574
716.74376,0.01624
714.68416,0.01655
712.62455,0.01686
710.56494,0.01726
708.50533,0.01765
706.44572,0.01806
704.38611,0.01848
702.32650,0.01891
700.26690,0.01941
698.20729,0.01984
696.14768,0.02005
694.08807,0.02026
692.02846,0.02060
689.96885,0.02091
687.90924,0.02097
685.84964,0.02077
683.79003,0.02063
681.73042,0.02070
679.67081,0.02075
677.61120,0.02072
675.55159,0.02068
673.49199,0.02059
671.43238,0.02041
669.37277,0.02016
667.31316,0.01998
665.25355,0.02010
663.19394,0.02033
661.13433,0.02044
659.07473,0.02046
657.01512,0.02052
654.95551,0.02068
652.89590,0.02094
650.83629,0.02126
648.77668,0.02154
646.71707,0.02170
644.65747,0.02180
642.59786,0.02196
640.53825,0.02216
638.47864,0.02233
636.41903,0.02251
634.35942,0.02268
632.29981,0.02277
630.24021,0.02274
628.18060,0.02267
626.12099,0.02258
624.06138,0.02246
622.00177,0.02238
619.94216,0.02229
617.88256,0.02211
615.82295,0.02189
613.76334,0.02174
611.70373,0.02177
609.64412,0.02190
607.58451,0.02171
605.52490,0.02118
603.46530,0.02068
601.40569,0.02030
599.34608,0.01995
597.28647,0.01949
595.22686,0.01889
593.16725,0.01819
591.10764,0.01760
589.04804,0.01718
586.98843,0.01689
584.92882,0.01659
582.86921,0.01624
580.80960,0.01595
578.74999,0.01572
576.69039,0.01541
574.63078,0.01512
572.57117,0.01494
570.51156,0.01494
568.45195,0.01506
566.39234,0.01527
564.33273,0.01579
562.27313,0.01669
560.21352,0.01773
558.15391,0.01867
556.09430,0.01957
554.03469,0.02044
551.97508,0.02107
549.91547,0.02141
547.85587,0.02154
545.79626,0.02151
543.73665,0.02119
541.67704,0.02053
539.61743,0.01970
537.55782,0.01892
535.49821,0.01843
533.43861,0.01819
531.37900,0.01787
529.31939,0.01729
527.25978,0.01674
525.20017,0.01644
523.14056,0.01617
521.08096,0.01576
519.02135,0.01527
516.96174,0.01479
514.90213,0.01449
512.84252,0.01428
510.78291,0.01400
508.72330,0.01369
506.66370,0.01341
504.60409,0.01313
502.54448,0.01271
500.48487,0.01219
498.42526,0.01167
496.36565,0.01138
494.30604,0.01137
492.24644,0.01128
490.18683,0.01119
488.12722,0.01118
486.06761,0.01102
484.00800,0.01072
481.94839,0.01027
479.88878,0.00980
477.82918,0.00956
475.76957,0.00939
473.70996,0.00885
471.65035,0.00810
469.59074,0.00754
467.53113,0.00720
465.47153,0.00715
463.41192,0.00736
461.35231,0.00735
459.29270,0.00680
457.23309,0.00604
455.17348,0.00563
453.11387,0.00538
451.05427,0.00499
448.99466,0.00493
446.93505,0.00526
444.87544,0.00516
442.81583,0.00446
440.75622,0.00381
438.69661,0.00371
436.63701,0.00400
434.57740,0.00420
432.51779,0.00427
430.45818,0.00457
428.39857,0.00511
426.33896,0.00577
424.27935,0.00610
422.21975,0.00583
420.16014,0.00556
418.10053,0.00531
416.04092,0.00465
413.98131,0.00404
411.92170,0.00332
409.86210,0.00212
407.80249,0.00119
405.74288,0.00101
403.68327,0.00091
401.62366,0.00054
399.56405,0.00000
