3997.70013,0.03473
3995.64052,0.03508
3993.58092,0.03532
3991.52131,0.03529
3989.46170,0.03484
3987.40209,0.03386
3985.34248,0.03330
3983.28287,0.03338
3981.22327,0.03386
3979.16366,0.03428
3977.10405,0.03401
3975.04444,0.03383
3972.98483,0.03445
3970.92522,0.03507
3968.86561,0.03516
3966.80601,0.03507
3964.74640,0.03506
3962.68679,0.03514
3960.62718,0.03503
3958.56757,0.03466
3956.50796,0.03478
3954.44835,0.03533
3952.38875,0.03501
3950.32914,0.03377
3948.26953,0.03298
3946.20992,0.03330
3944.15031,0.03408
3942.09070,0.03443
3940.03109,0.03449
3937.97149,0.03460
3935.91188,0.03454
3933.85227,0.03445
3931.79266,0.03448
3929.73305,0.03428
3927.67344,0.03401
3925.61384,0.03414
3923.55423,0.03436
3921.49462,0.03431
3919.43501,0.03435
3917.37540,0.03437
3915.31579,0.03404
3913.25618,0.03394
3911.19658,0.03436
3909.13697,0.03459
3907.07736,0.03421
3905.01775,0.03359
3902.95814,0.03322
3900.89853,0.03357
3898.83892,0.03398
3896.77932,0.03367
3894.71971,0.03336
3892.66010,0.03353
3890.60049,0.03335
3888.54088,0.03270
3886.48127,0.03232
3884.42166,0.03209
3882.36206,0.03214
3880.30245,0.03280
3878.24284,0.03317
3876.18323,0.03283
3874.12362,0.03260
3872.06401,0.03291
3870.00441,0.03342
3867.94480,0.03355
3865.88519,0.03317
3863.82558,0.03295
3861.76597,0.03312
3859.70636,0.03344
3857.64675,0.03355
3855.58715,0.03295
3853.52754,0.03221
3851.46793,0.03247
3849.40832,0.03259
3847.34871,0.03213
3845.28910,0.03212
3843.22949,0.03278
3841.16989,0.03301
3839.11028,0.03302
3837.05067,0.03321
3834.99106,0.03331
3832.93145,0.03323
3830.87184,0.03294
3828.81223,0.03267
3826.75263,0.03185
3824.69302,0.03074
3822.63341,0.03065
3820.57380,0.03131
3818.51419,0.03160
3816.45458,0.03160
3814.39498,0.03155
3812.33537,0.03155
3810.27576,0.03164
3808.21615,0.03174
3806.15654,0.03193
3804.09693,0.03183
3802.03732,0.03160
3799.97772,0.03184
3797.91811,0.03205
3795.85850,0.03195
3793.79889,0.03185
3791.73928,0.03235
3789.67967,0.03309
3787.62006,0.03277
3785.56046,0.03138
3783.50085,0.03038
3781.44124,0.03029
3779.38163,0.03072
3777.32202,0.03147
3775.26241,0.03215
3773.20280,0.03218
3771.14320,0.03164
3769.08359,0.03136
3767.02398,0.03137
3764.96437,0.03113
3762.90476,0.03056
3760.84515,0.03009
3758.78555,0.03023
3756.72594,0.03069
3754.66633,0.03138
3752.60672,0.03201
3750.54711,0.03164
3748.48750,0.03087
3746.42789,0.03082
3744.36829,0.03140
3742.30868,0.03166
3740.24907,0.03104
3738.18946,0.03024
3736.12985,0.02987
3734.07024,0.02984
3732.01063,0.02992
3729.95103,0.02960
3727.89142,0.02920
3725.83181,0.02991
3723.77220,0.03126
3721.71259,0.03146
3719.65298,0.03050
3717.59337,0.02977
3715.53377,0.02996
3713.47416,0.03067
3711.41455,0.03089
3709.35494,0.03018
3707.29533,0.02969
3705.23572,0.02963
3703.17612,0.02963
3701.11651,0.02991
3699.05690,0.03009
3696.99729,0.02984
3694.93768,0.02960
3692.87807,0.02944
3690.81846,0.02923
3688.75886,0.02916
3686.69925,0.02955
3684.63964,0.03047
3682.58003,0.03139
3680.52042,0.03174
3678.46081,0.03170
3676.40120,0.03139
3674.34160,0.03056
3672.28199,0.02993
3670.22238,0.02994
3668.16277,0.03046
3666.10316,0.03104
3664.04355,0.03137
3661.98394,0.03143
3659.92434,0.03157
3657.86473,0.03183
3655.80512,0.03191
3653.74551,0.03189
3651.68590,0.03206
3649.62629,0.03253
3647.56669,0.03223
3645.50708,0.03133
3643.44747,0.03124
3641.38786,0.03192
3639.32825,0.03293
3637.26864,0.03382
3635.20903,0.03462
3633.14943,0.03551
3631.08982,0.03615
3629.03021,0.03636
3626.97060,0.03610
3624.91099,0.03594
3622.85138,0.03620
3620.79177,0.03653
3618.73217,0.03635
3616.67256,0.03589
3614.61295,0.03632
3612.55334,0.03741
3610.49373,0.03788
3608.43412,0.03788
3606.37451,0.03840
3604.31491,0.03892
3602.25530,0.03897
3600.19569,0.03909
3598.13608,0.03967
3596.07647,0.04048
3594.01686,0.04120
3591.95726,0.04173
3589.89765,0.04209
3587.83804,0.04234
3585.77843,0.04263
3583.71882,0.04285
3581.65921,0.04283
3579.59960,0.04281
3577.54000,0.04282
3575.48039,0.04309
3573.42078,0.04396
3571.36117,0.04479
3569.30156,0.04519
3567.24195,0.04531
3565.18234,0.04525
3563.12274,0.04533
3561.06313,0.04578
3559.00352,0.04643
3556.94391,0.04722
3554.88430,0.04831
3552.82469,0.04922
3550.76508,0.04987
3548.70548,0.05070
3546.64587,0.05125
3544.58626,0.05119
3542.52665,0.05116
3540.46704,0.05166
3538.40743,0.05249
3536.34783,0.05305
3534.28822,0.05326
3532.22861,0.05355
3530.16900,0.05399
3528.10939,0.05468
3526.04978,0.05540
3523.99017,0.05573
3521.93057,0.05585
3519.87096,0.05595
3517.81135,0.05628
3515.75174,0.05669
3513.69213,0.05677
3511.63252,0.05675
3509.57291,0.05685
3507.51331,0.05705
3505.45370,0.05747
3503.39409,0.05786
3501.33448,0.05816
3499.27487,0.05860
3497.21526,0.05901
3495.15565,0.05921
3493.09605,0.05939
3491.03644,0.05957
3488.97683,0.05979
3486.91722,0.06029
3484.85761,0.06057
3482.79800,0.06040
3480.73840,0.06033
3478.67879,0.06021
3476.61918,0.06022
3474.55957,0.06091
3472.49996,0.06194
3470.44035,0.06280
3468.38074,0.06326
3466.32114,0.06330
3464.26153,0.06291
3462.20192,0.06255
3460.14231,0.06278
3458.08270,0.06330
3456.02309,0.06369
3453.96348,0.06387
3451.90388,0.06399
3449.84427,0.06483
3447.78466,0.06619
3445.72505,0.06667
3443.66544,0.06625
3441.60583,0.06645
3439.54622,0.06755
3437.48662,0.06792
3435.42701,0.06713
3433.36740,0.06674
3431.30779,0.06713
3429.24818,0.06750
3427.18857,0.06762
3425.12897,0.06773
3423.06936,0.06837
3421.00975,0.06923
3418.95014,0.06950
3416.89053,0.06965
3414.83092,0.07028
3412.77131,0.07105
3410.71171,0.07165
3408.65210,0.07213
3406.59249,0.07245
3404.53288,0.07274
3402.47327,0.07314
3400.41366,0.07347
3398.35405,0.07365
3396.29445,0.07376
3394.23484,0.07430
3392.17523,0.07533
3390.11562,0.07610
3388.05601,0.07637
3385.99640,0.07641
3383.93679,0.07670
3381.87719,0.07725
3379.81758,0.07775
3377.75797,0.07833
3375.69836,0.07895
3373.63875,0.07928
3371.57914,0.07923
3369.51954,0.07931
3367.45993,0.07993
3365.40032,0.08091
3363.34071,0.08188
3361.28110,0.08229
3359.22149,0.08247
3357.16188,0.08310
3355.10228,0.08377
3353.04267,0.08438
3350.98306,0.08519
3348.92345,0.08597
3346.86384,0.08682
3344.80423,0.08811
3342.74462,0.08939
3340.68502,0.09029
3338.62541,0.09119
3336.56580,0.09235
3334.50619,0.09336
3332.44658,0.09393
3330.38697,0.09459
3328.32736,0.09605
3326.26776,0.09821
3324.20815,0.10047
3322.14854,0.10251
3320.08893,0.10394
3318.02932,0.10494
3315.96971,0.10646
3313.91011,0.10855
3311.85050,0.11082
3309.79089,0.11332
3307.73128,0.11570
3305.67167,0.11764
3303.61206,0.11955
3301.55245,0.12201
3299.49285,0.12512
3297.43324,0.12816
3295.37363,0.13060
3293.31402,0.13282
3291.25441,0.13543
3289.19480,0.13846
3287.13519,0.14164
3285.07559,0.14489
3283.01598,0.14779
3280.95637,0.15014
3278.89676,0.15267
3276.83715,0.15531
3274.77754,0.15734
3272.71793,0.15874
3270.65833,0.15930
3268.59872,0.15912
3266.53911,0.15855
3264.47950,0.15747
3262.41989,0.15587
3260.36028,0.15407
3258.30068,0.15240
3256.24107,0.15064
3254.18146,0.14836
3252.12185,0.14596
3250.06224,0.14379
3248.00263,0.14155
3245.94302,0.13943
3243.88342,0.13767
3241.82381,0.13600
3239.76420,0.13419
3237.70459,0.13252
3235.64498,0.13137
3233.58537,0.13034
3231.52576,0.12870
3229.46616,0.12687
3227.40655,0.12545
3225.34694,0.12419
3223.28733,0.12318
3221.22772,0.12233
3219.16811,0.12074
3217.10850,0.11861
3215.04890,0.11728
3212.98929,0.11661
3210.92968,0.11551
3208.87007,0.11412
3206.81046,0.11294
3204.75085,0.11185
3202.69125,0.11079
3200.63164,0.10989
3198.57203,0.10919
3196.51242,0.10842
3194.45281,0.10739
3192.39320,0.10612
3190.33359,0.10473
3188.27399,0.10337
3186.21438,0.10214
3184.15477,0.10113
3182.09516,0.10012
3180.03555,0.09932
3177.97594,0.09919
3175.91633,0.09866
3173.85673,0.09697
3171.79712,0.09550
3169.73751,0.09495
3167.67790,0.09430
3165.61829,0.09317
3163.55868,0.09213
3161.49907,0.09135
3159.43947,0.09043
3157.37986,0.08940
3155.32025,0.08850
3153.26064,0.08780
3151.20103,0.08722
3149.14142,0.08650
3147.08182,0.08555
3145.02221,0.08483
3142.96260,0.08444
3140.90299,0.08389
3138.84338,0.08319
3136.78377,0.08260
3134.72416,0.08197
3132.66456,0.08144
3130.60495,0.08132
3128.54534,0.08137
3126.48573,0.08118
3124.42612,0.08082
3122.36651,0.08055
3120.30690,0.08054
3118.24730,0.08065
3116.18769,0.08058
3114.12808,0.08047
3112.06847,0.08038
3110.00886,0.08004
3107.94925,0.07981
3105.88965,0.08010
3103.83004,0.08045
3101.77043,0.08047
3099.71082,0.08031
3097.65121,0.08037
3095.59160,0.08091
3093.53199,0.08160
3091.47239,0.08175
3089.41278,0.08134
3087.35317,0.08133
3085.29356,0.08216
3083.23395,0.08314
3081.17434,0.08369
3079.11473,0.08389
3077.05513,0.08397
3074.99552,0.08392
3072.93591,0.08378
3070.87630,0.08381
3068.81669,0.08383
3066.75708,0.08352
3064.69747,0.08321
3062.63787,0.08307
3060.57826,0.08269
3058.51865,0.08226
3056.45904,0.08202
3054.39943,0.08153
3052.33982,0.08069
3050.28022,0.07995
3048.22061,0.07919
3046.16100,0.07816
3044.10139,0.07727
3042.04178,0.07654
3039.98217,0.07588
3037.92256,0.07541
3035.86296,0.07491
3033.80335,0.07408
3031.74374,0.07302
3029.68413,0.07227
3027.62452,0.07196
3025.56491,0.07172
3023.50530,0.07117
3021.44570,0.07042
3019.38609,0.06995
3017.32648,0.06982
3015.26687,0.06961
3013.20726,0.06912
3011.14765,0.06882
3009.08804,0.06876
3007.02844,0.06843
3004.96883,0.06807
3002.90922,0.06818
3000.84961,0.06847
2998.79000,0.06853
2996.73039,0.06841
2994.67079,0.06880
2992.61118,0.06993
2990.55157,0.07115
2988.49196,0.07201
2986.43235,0.07226
2984.37274,0.07220
2982.31313,0.07264
2980.25353,0.07356
2978.19392,0.07419
2976.13431,0.07450
2974.07470,0.07479
2972.01509,0.07501
2969.95548,0.07529
2967.89587,0.07552
2965.83627,0.07535
2963.77666,0.07453
2961.71705,0.07360
2959.65744,0.07312
2957.59783,0.07272
2955.53822,0.07199
2953.47861,0.07137
2951.41901,0.07131
2949.35940,0.07147
2947.29979,0.07176
2945.24018,0.07239
2943.18057,0.07321
2941.12096,0.07405
2939.06136,0.07507
2937.00175,0.07628
2934.94214,0.07750
2932.88253,0.07873
2930.82292,0.07986
2928.76331,0.08074
2926.70370,0.08143
2924.64410,0.08184
2922.58449,0.08185
2920.52488,0.08151
2918.46527,0.08080
2916.40566,0.07942
2914.34605,0.07738
2912.28644,0.07531
2910.22684,0.07356
2908.16723,0.07191
2906.10762,0.07034
2904.04801,0.06914
2901.98840,0.06830
2899.92879,0.06759
2897.86918,0.06719
2895.80958,0.06696
2893.74997,0.06645
2891.69036,0.06561
2889.63075,0.06502
2887.57114,0.06513
2885.51153,0.06533
2883.45193,0.06505
2881.39232,0.06467
2879.33271,0.06469
2877.27310,0.06503
2875.21349,0.06559
2873.15388,0.06618
2871.09427,0.06637
2869.03467,0.06588
2866.97506,0.06500
2864.91545,0.06418
2862.85584,0.06373
2860.79623,0.06379
2858.73662,0.06398
2856.67701,0.06400
2854.61741,0.06428
2852.55780,0.06483
2850.49819,0.06493
2848.43858,0.06421
2846.37897,0.06287
2844.31936,0.06128
2842.25975,0.05983
2840.20015,0.05877
2838.14054,0.05801
2836.08093,0.05727
2834.02132,0.05651
2831.96171,0.05605
2829.90210,0.05595
2827.84250,0.05587
2825.78289,0.05575
2823.72328,0.05546
2821.66367,0.05477
2819.60406,0.05416
2817.54445,0.05419
2815.48484,0.05430
2813.42524,0.05404
2811.36563,0.05373
2809.30602,0.05363
2807.24641,0.05361
2805.18680,0.05344
2803.12719,0.05315
2801.06758,0.05300
2799.00798,0.05299
2796.94837,0.05306
2794.88876,0.05297
2792.82915,0.05260
2790.76954,0.05228
2788.70993,0.05209
2786.65032,0.05179
2784.59072,0.05168
2782.53111,0.05180
2780.47150,0.05169
2778.41189,0.05132
2776.35228,0.05103
2774.29267,0.05089
2772.23307,0.05079
2770.17346,0.05063
2768.11385,0.05030
2766.05424,0.04991
2763.99463,0.04967
2761.93502,0.04956
2759.87541,0.04948
2757.81581,0.04934
2755.75620,0.04911
2753.69659,0.04890
2751.63698,0.04883
2749.57737,0.04879
2747.51776,0.04871
2745.45815,0.04865
2743.39855,0.04857
2741.33894,0.04835
2739.27933,0.04795
2737.21972,0.04751
2735.16011,0.04722
2733.10050,0.04713
2731.04089,0.04714
2728.98129,0.04717
2726.92168,0.04702
2724.86207,0.04665
2722.80246,0.04644
2720.74285,0.04646
2718.68324,0.04639
2716.62364,0.04604
2714.56403,0.04551
2712.50442,0.04522
2710.44481,0.04536
2708.38520,0.04563
2706.32559,0.04565
2704.26598,0.04540
2702.20638,0.04517
2700.14677,0.04515
2698.08716,0.04520
2696.02755,0.04506
2693.96794,0.04475
2691.90833,0.04449
2689.84872,0.04412
2687.78912,0.04369
2685.72951,0.04365
2683.66990,0.04386
2681.61029,0.04389
2679.55068,0.04355
2677.49107,0.04306
2675.43146,0.04282
2673.37186,0.04283
2671.31225,0.04291
2669.25264,0.04289
2667.19303,0.04282
2665.13342,0.04293
2663.07381,0.04313
2661.01421,0.04312
2658.95460,0.04281
2656.89499,0.04264
2654.83538,0.04277
2652.77577,0.04275
2650.71616,0.04249
2648.65655,0.04235
2646.59695,0.04237
2644.53734,0.04231
2642.47773,0.04210
2640.41812,0.04188
2638.35851,0.04175
2636.29890,0.04153
2634.23929,0.04127
2632.17969,0.04118
2630.12008,0.04131
2628.06047,0.04129
2626.00086,0.04091
2623.94125,0.04049
2621.88164,0.04045
2619.82203,0.04063
2617.76243,0.04054
2615.70282,0.04028
2613.64321,0.04031
2611.58360,0.04055
2609.52399,0.04052
2607.46438,0.04016
2605.40478,0.03989
2603.34517,0.03986
2601.28556,0.03987
2599.22595,0.03970
2597.16634,0.03932
2595.10673,0.03901
2593.04712,0.03889
2590.98752,0.03892
2588.92791,0.03888
2586.86830,0.03864
2584.80869,0.03850
2582.74908,0.03856
2580.68947,0.03850
2578.62986,0.03842
2576.57026,0.03837
2574.51065,0.03793
2572.45104,0.03708
2570.39143,0.03643
2568.33182,0.03654
2566.27221,0.03721
2564.21260,0.03771
2562.15300,0.03770
2560.09339,0.03739
2558.03378,0.03703
2555.97417,0.03668
2553.91456,0.03643
2551.85495,0.03644
2549.79535,0.03650
2547.73574,0.03638
2545.67613,0.03619
2543.61652,0.03605
2541.55691,0.03600
2539.49730,0.03583
2537.43769,0.03545
2535.37809,0.03516
2533.31848,0.03494
2531.25887,0.03487
2529.19926,0.03502
2527.13965,0.03519
2525.08004,0.03533
2523.02043,0.03512
2520.96083,0.03469
2518.90122,0.03469
2516.84161,0.03507
2514.78200,0.03531
2512.72239,0.03505
2510.66278,0.03453
2508.60317,0.03412
2506.54357,0.03403
2504.48396,0.03397
2502.42435,0.03385
2500.36474,0.03393
2498.30513,0.03419
2496.24552,0.03443
2494.18592,0.03451
2492.12631,0.03434
2490.06670,0.03414
2488.00709,0.03419
2485.94748,0.03433
2483.88787,0.03429
2481.82826,0.03416
2479.76866,0.03424
2477.70905,0.03439
2475.64944,0.03456
2473.58983,0.03467
2471.53022,0.03427
2469.47061,0.03378
2467.41100,0.03380
2465.35140,0.03391
2463.29179,0.03372
2461.23218,0.03363
2459.17257,0.03382
2457.11296,0.03408
2455.05335,0.03407
2452.99374,0.03368
2450.93414,0.03317
2448.87453,0.03276
2446.81492,0.03260
2444.75531,0.03272
2442.69570,0.03274
2440.63609,0.03231
2438.57649,0.03177
2436.51688,0.03163
2434.45727,0.03197
2432.39766,0.03242
2430.33805,0.03276
2428.27844,0.03310
2426.21883,0.03329
2424.15923,0.03314
2422.09962,0.03269
2420.04001,0.03213
2417.98040,0.03175
2415.92079,0.03172
2413.86118,0.03193
2411.80157,0.03210
2409.74197,0.03228
2407.68236,0.03238
2405.62275,0.03224
2403.56314,0.03209
2401.50353,0.03180
2399.44392,0.03149
2397.38431,0.03158
2395.32471,0.03165
2393.26510,0.03146
2391.20549,0.03154
2389.14588,0.03179
2387.08627,0.03165
2385.02666,0.03133
2382.96706,0.03114
2380.90745,0.03101
2378.84784,0.03079
2376.78823,0.03064
2374.72862,0.03080
2372.66901,0.03088
2370.60940,0.03059
2368.54980,0.03022
2366.49019,0.03022
2364.43058,0.03061
2362.37097,0.03114
2360.31136,0.03153
2358.25175,0.03165
2356.19214,0.03149
2354.13254,0.03103
2352.07293,0.03084
2350.01332,0.03106
2347.95371,0.03125
2345.89410,0.03120
2343.83449,0.03125
2341.77488,0.03150
2339.71528,0.03120
2337.65567,0.03064
2335.59606,0.03072
2333.53645,0.03109
2331.47684,0.03120
2329.41723,0.03135
2327.35763,0.03193
2325.29802,0.03255
2323.23841,0.03266
2321.17880,0.03236
2319.11919,0.03203
2317.05958,0.03194
2314.99997,0.03192
2312.94037,0.03155
2310.88076,0.03112
2308.82115,0.03096
2306.76154,0.03060
2304.70193,0.03018
2302.64232,0.03023
2300.58271,0.03053
2298.52311,0.03063
2296.46350,0.03043
2294.40389,0.03038
2292.34428,0.03057
2290.28467,0.03067
2288.22506,0.03077
2286.16545,0.03099
2284.10585,0.03089
2282.04624,0.03023
2279.98663,0.02977
2277.92702,0.02968
2275.86741,0.02952
2273.80780,0.02945
2271.74820,0.02964
2269.68859,0.02953
2267.62898,0.02892
2265.56937,0.02837
2263.50976,0.02831
2261.45015,0.02882
2259.39054,0.02931
2257.33094,0.02897
2255.27133,0.02820
2253.21172,0.02800
2251.15211,0.02827
2249.09250,0.02802
2247.03289,0.02707
2244.97328,0.02632
2242.91368,0.02597
2240.85407,0.02594
2238.79446,0.02620
2236.73485,0.02666
2234.67524,0.02719
2232.61563,0.02747
2230.55602,0.02741
2228.49642,0.02728
2226.43681,0.02753
2224.37720,0.02748
2222.31759,0.02641
2220.25798,0.02548
2218.19837,0.02545
2216.13877,0.02576
2214.07916,0.02632
2212.01955,0.02675
2209.95994,0.02613
2207.90033,0.02514
2205.84072,0.02469
2203.78111,0.02484
2201.72151,0.02536
2199.66190,0.02551
2197.60229,0.02494
2195.54268,0.02476
2193.48307,0.02540
2191.42346,0.02557
2189.36385,0.02499
2187.30425,0.02445
2185.24464,0.02415
2183.18503,0.02380
2181.12542,0.02385
2179.06581,0.02450
2177.00620,0.02458
2174.94659,0.02377
2172.88699,0.02375
2170.82738,0.02509
2168.76777,0.02572
2166.70816,0.02500
2164.64855,0.02437
2162.58894,0.02323
2160.52934,0.02097
2158.46973,0.01928
2156.41012,0.01917
2154.35051,0.02015
2152.29090,0.02161
2150.23129,0.02254
2148.17168,0.02199
2146.11208,0.02127
2144.05247,0.02210
2141.99286,0.02303
2139.93325,0.02299
2137.87364,0.02288
2135.81403,0.02302
2133.75442,0.02291
2131.69482,0.02293
2129.63521,0.02372
2127.57560,0.02449
2125.51599,0.02447
2123.45638,0.02400
2121.39677,0.02395
2119.33716,0.02433
2117.27756,0.02440
2115.21795,0.02425
2113.15834,0.02441
2111.09873,0.02475
2109.03912,0.02508
2106.97951,0.02544
2104.91991,0.02565
2102.86030,0.02552
2100.80069,0.02509
2098.74108,0.02473
2096.68147,0.02481
2094.62186,0.02475
2092.56225,0.02440
2090.50265,0.02424
2088.44304,0.02424
2086.38343,0.02423
2084.32382,0.02408
2082.26421,0.02410
2080.20460,0.02447
2078.14499,0.02477
2076.08539,0.02436
2074.02578,0.02346
2071.96617,0.02304
2069.90656,0.02327
2067.84695,0.02367
2065.78734,0.02382
2063.72773,0.02367
2061.66813,0.02349
2059.60852,0.02346
2057.54891,0.02328
2055.48930,0.02238
2053.42969,0.02214
2051.37008,0.02306
2049.31048,0.02255
2047.25087,0.02086
2045.19126,0.02021
2043.13165,0.02018
2041.07204,0.02075
2039.01243,0.02185
2036.95282,0.02218
2034.89322,0.02130
2032.83361,0.02026
2030.77400,0.01994
2028.71439,0.01981
2026.65478,0.01919
2024.59517,0.01883
2022.53556,0.01973
2020.47596,0.02085
2018.41635,0.02079
2016.35674,0.01941
2014.29713,0.01813
2012.23752,0.01833
2010.17791,0.01886
2008.11830,0.01887
2006.05870,0.01901
2003.99909,0.01945
2001.93948,0.02012
1999.87987,0.02063
1997.82026,0.02029
1995.76065,0.01941
1993.70105,0.01914
1991.64144,0.01961
1989.58183,0.01997
1987.52222,0.01997
1985.46261,0.01990
1983.40300,0.01992
1981.34339,0.02004
1979.28379,0.02003
1977.22418,0.01967
1975.16457,0.01933
1973.10496,0.01960
1971.04535,0.01992
1968.98574,0.01953
1966.92613,0.01905
1964.86653,0.01900
1962.80692,0.01876
1960.74731,0.01773
1958.68770,0.01691
1956.62809,0.01722
1954.56848,0.01773
1952.50887,0.01775
1950.44927,0.01744
1948.38966,0.01753
1946.33005,0.01822
1944.27044,0.01871
1942.21083,0.01899
1940.15122,0.01912
1938.09162,0.01888
1936.03201,0.01866
1933.97240,0.01881
1931.91279,0.01915
1929.85318,0.01922
1927.79357,0.01892
1925.73396,0.01856
1923.67436,0.01838
1921.61475,0.01838
1919.55514,0.01848
1917.49553,0.01877
1915.43592,0.01871
1913.37631,0.01815
1911.31670,0.01794
1909.25710,0.01824
1907.19749,0.01855
1905.13788,0.01857
1903.07827,0.01844
1901.01866,0.01846
1898.95905,0.01838
1896.89944,0.01808
1894.83984,0.01793
1892.78023,0.01801
1890.72062,0.01814
1888.66101,0.01835
1886.60140,0.01837
1884.54179,0.01795
1882.48219,0.01772
1880.42258,0.01805
1878.36297,0.01829
1876.30336,0.01817
1874.24375,0.01793
1872.18414,0.01781
1870.12453,0.01779
1868.06493,0.01745
1866.00532,0.01708
1863.94571,0.01714
1861.88610,0.01743
1859.82649,0.01760
1857.76688,0.01747
1855.70727,0.01719
1853.64767,0.01704
1851.58806,0.01687
1849.52845,0.01669
1847.46884,0.01674
1845.40923,0.01703
1843.34962,0.01727
1841.29002,0.01714
1839.23041,0.01707
1837.17080,0.01728
1835.11119,0.01722
1833.05158,0.01689
1830.99197,0.01674
1828.93236,0.01671
1826.87276,0.01655
1824.81315,0.01634
1822.75354,0.01609
1820.69393,0.01590
1818.63432,0.01588
1816.57471,0.01584
1814.51510,0.01570
1812.45550,0.01575
1810.39589,0.01596
1808.33628,0.01590
1806.27667,0.01561
1804.21706,0.01574
1802.15745,0.01613
1800.09784,0.01613
1798.03824,0.01573
1795.97863,0.01533
1793.91902,0.01508
1791.85941,0.01497
1789.79980,0.01508
1787.74019,0.01530
1785.68059,0.01533
1783.62098,0.01513
1781.56137,0.01482
1779.50176,0.01456
1777.44215,0.01455
1775.38254,0.01472
1773.32293,0.01482
1771.26333,0.01467
1769.20372,0.01451
1767.14411,0.01463
1765.08450,0.01483
1763.02489,0.01487
1760.96528,0.01482
1758.90567,0.01471
1756.84607,0.01447
1754.78646,0.01415
1752.72685,0.01392
1750.66724,0.01399
1748.60763,0.01425
1746.54802,0.01436
1744.48841,0.01430
1742.42881,0.01425
1740.36920,0.01417
1738.30959,0.01397
1736.24998,0.01373
1734.19037,0.01361
1732.13076,0.01384
1730.07116,0.01418
1728.01155,0.01442
1725.95194,0.01458
1723.89233,0.01488
1721.83272,0.01529
1719.77311,0.01569
1717.71350,0.01621
1715.65390,0.01713
1713.59429,0.01831
1711.53468,0.01975
1709.47507,0.02171
1707.41546,0.02448
1705.35585,0.02849
1703.29624,0.03307
1701.23664,0.03860
1699.17703,0.04477
1697.11742,0.04828
1695.05781,0.05010
1692.99820,0.05142
1690.93859,0.05260
1688.87898,0.05401
1686.81938,0.05547
1684.75977,0.05768
1682.70016,0.06065
1680.64055,0.06302
1678.58094,0.06517
1676.52133,0.06774
1674.46173,0.07088
1672.40212,0.07373
1670.34251,0.07667
1668.28290,0.08006
1666.22329,0.08285
1664.16368,0.08554
1662.10407,0.08893
1660.04447,0.09227
1657.98486,0.09500
1655.92525,0.09736
1653.86564,0.10092
1651.80603,0.10584
1649.74642,0.10873
1647.68681,0.11164
1645.62721,0.11608
1643.56760,0.12018
1641.50799,0.12385
1639.44838,0.12771
1637.38877,0.13218
1635.32916,0.13817
1633.26955,0.14347
1631.20995,0.14712
1629.15034,0.15055
1627.09073,0.15356
1625.03112,0.15553
1622.97151,0.15661
1620.91190,0.15642
1618.85230,0.15479
1616.79269,0.15182
1614.73308,0.14823
1612.67347,0.14455
1610.61386,0.14023
1608.55425,0.13514
1606.49464,0.12948
1604.43504,0.12365
1602.37543,0.11821
1600.31582,0.11356
1598.25621,0.10967
1596.19660,0.10631
1594.13699,0.10323
1592.07738,0.10030
1590.01778,0.09764
1587.95817,0.09543
1585.89856,0.09369
1583.83895,0.09244
1581.77934,0.09154
1579.71973,0.09091
1577.66012,0.09068
1575.60052,0.09095
1573.54091,0.09134
1571.48130,0.09185
1569.42169,0.09308
1567.36208,0.09469
1565.30247,0.09639
1563.24287,0.09817
1561.18326,0.09998
1559.12365,0.10321
1557.06404,0.10678
1555.00443,0.10884
1552.94482,0.11081
1550.88521,0.11297
1548.82561,0.11517
1546.76600,0.11721
1544.70639,0.11938
1542.64678,0.12188
1540.58717,0.12515
1538.52756,0.12872
1536.46795,0.13084
1534.40835,0.13285
1532.34874,0.13556
1530.28913,0.13788
1528.22952,0.13999
1526.16991,0.14236
1524.11030,0.14447
1522.05069,0.14694
1519.99109,0.15015
1517.93148,0.15314
1515.87187,0.15593
1513.81226,0.15791
1511.75265,0.15868
1509.69304,0.15839
1507.63344,0.15701
1505.57383,0.15482
1503.51422,0.15240
1501.45461,0.14961
1499.39500,0.14629
1497.33539,0.14245
1495.27578,0.13827
1493.21618,0.13430
1491.15657,0.13023
1489.09696,0.12554
1487.03735,0.12082
1484.97774,0.11660
1482.91813,0.11295
1480.85852,0.10966
1478.79892,0.10663
1476.73931,0.10393
1474.67970,0.10159
1472.62009,0.09948
1470.56048,0.09765
1468.50087,0.09616
1466.44126,0.09487
1464.38166,0.09404
1462.32205,0.09394
1460.26244,0.09447
1458.20283,0.09602
1456.14322,0.09878
1454.08361,0.10081
1452.02401,0.10210
1449.96440,0.10365
1447.90479,0.10568
1445.84518,0.10741
1443.78557,0.10785
1441.72596,0.10684
1439.66635,0.10475
1437.60675,0.10190
1435.54714,0.09874
1433.48753,0.09611
1431.42792,0.09383
1429.36831,0.09170
1427.30870,0.09001
1425.24909,0.08889
1423.18949,0.08828
1421.12988,0.08799
1419.07027,0.08811
1417.01066,0.08851
1414.95105,0.08895
1412.89144,0.08951
1410.83183,0.09033
1408.77223,0.09129
1406.71262,0.09226
1404.65301,0.09325
1402.59340,0.09404
1400.53379,0.09449
1398.47418,0.09487
1396.41458,0.09523
1394.35497,0.09542
1392.29536,0.09541
1390.23575,0.09519
1388.17614,0.09484
1386.11653,0.09442
1384.05692,0.09385
1381.99732,0.09314
1379.93771,0.09249
1377.87810,0.09209
1375.81849,0.09223
1373.75888,0.09302
1371.69927,0.09380
1369.63966,0.09356
1367.58006,0.09205
1365.52045,0.09002
1363.46084,0.08819
1361.40123,0.08663
1359.34162,0.08509
1357.28201,0.08347
1355.22240,0.08188
1353.16280,0.08051
1351.10319,0.07940
1349.04358,0.07858
1346.98397,0.07804
1344.92436,0.07759
1342.86475,0.07724
1340.80515,0.07703
1338.74554,0.07686
1336.68593,0.07661
1334.62632,0.07618
1332.56671,0.07568
1330.50710,0.07516
1328.44749,0.07455
1326.38789,0.07390
1324.32828,0.07326
1322.26867,0.07263
1320.20906,0.07204
1318.14945,0.07161
1316.08984,0.07147
1314.03023,0.07149
1311.97063,0.07139
1309.91102,0.07108
1307.85141,0.07063
1305.79180,0.07011
1303.73219,0.06955
1301.67258,0.06895
1299.61297,0.06834
1297.55337,0.06771
1295.49376,0.06708
1293.43415,0.06654
1291.37454,0.06620
1289.31493,0.06609
1287.25532,0.06610
1285.19572,0.06606
1283.13611,0.06602
1281.07650,0.06611
1279.01689,0.06645
1276.95728,0.06699
1274.89767,0.06757
1272.83806,0.06814
1270.77846,0.06878
1268.71885,0.06949
1266.65924,0.07025
1264.59963,0.07098
1262.54002,0.07160
1260.48041,0.07220
1258.42080,0.07291
1256.36120,0.07385
1254.30159,0.07502
1252.24198,0.07629
1250.18237,0.07764
1248.12276,0.07916
1246.06315,0.08095
1244.00354,0.08295
1241.94394,0.08485
1239.88433,0.08637
1237.82472,0.08742
1235.76511,0.08805
1233.70550,0.08840
1231.64589,0.08860
1229.58629,0.08876
1227.52668,0.08900
1225.46707,0.08932
1223.40746,0.08975
1221.34785,0.09014
1219.28824,0.09008
1217.22863,0.08927
1215.16903,0.08775
1213.10942,0.08563
1211.04981,0.08318
1208.99020,0.08065
1206.93059,0.07814
1204.87098,0.07570
1202.81137,0.07337
1200.75177,0.07125
1198.69216,0.06948
1196.63255,0.06800
1194.57294,0.06675
1192.51333,0.06571
1190.45372,0.06482
1188.39411,0.06407
1186.33451,0.06357
1184.27490,0.06335
1182.21529,0.06343
1180.15568,0.06394
1178.09607,0.06505
1176.03646,0.06663
1173.97686,0.06832
1171.91725,0.06984
1169.85764,0.07106
1167.79803,0.07187
1165.73842,0.07214
1163.67881,0.07186
1161.61920,0.07109
1159.55960,0.06997
1157.49999,0.06858
1155.44038,0.06699
1153.38077,0.06534
1151.32116,0.06377
1149.26155,0.06237
1147.20194,0.06113
1145.14234,0.06002
1143.08273,0.05903
1141.02312,0.05811
1138.96351,0.05721
1136.90390,0.05644
1134.84429,0.05585
1132.78468,0.05537
1130.72508,0.05496
1128.66547,0.05457
1126.60586,0.05404
1124.54625,0.05348
1122.48664,0.05315
1120.42703,0.05296
1118.36743,0.05274
1116.30782,0.05242
1114.24821,0.05201
1112.18860,0.05167
1110.12899,0.05148
1108.06938,0.05146
1106.00977,0.05148
1103.95017,0.05136
1101.89056,0.05105
1099.83095,0.05069
1097.77134,0.05041
1095.71173,0.05018
1093.65212,0.05003
1091.59251,0.05010
1089.53291,0.05055
1087.47330,0.05133
1085.41369,0.05216
1083.35408,0.05284
1081.29447,0.05338
1079.23486,0.05380
1077.17525,0.05408
1075.11565,0.05433
1073.05604,0.05463
1070.99643,0.05491
1068.93682,0.05506
1066.87721,0.05510
1064.81760,0.05530
1062.75800,0.05578
1060.69839,0.05637
1058.63878,0.05706
1056.57917,0.05791
1054.51956,0.05884
1052.45995,0.05968
1050.40034,0.06006
1048.34074,0.05957
1046.28113,0.05842
1044.22152,0.05711
1042.16191,0.05593
1040.10230,0.05492
1038.04269,0.05406
1035.98308,0.05341
1033.92348,0.05298
1031.86387,0.05262
1029.80426,0.05220
1027.74465,0.05186
1025.68504,0.05149
1023.62543,0.05081
1021.56582,0.05005
1019.50622,0.04947
1017.44661,0.04896
1015.38700,0.04842
1013.32739,0.04791
1011.26778,0.04734
1009.20817,0.04662
1007.14857,0.04583
1005.08896,0.04513
1003.02935,0.04450
1000.96974,0.04379
998.91013,0.04311
996.85052,0.04260
994.79091,0.04213
992.73131,0.04159
990.67170,0.04105
988.61209,0.04047
986.55248,0.03989
984.49287,0.03940
982.43326,0.03906
980.37365,0.03895
978.31405,0.03911
976.25444,0.03956
974.19483,0.04050
972.13522,0.04244
970.07561,0.04549
968.01600,0.04893
965.95639,0.05171
963.89679,0.05297
961.83718,0.05242
959.77757,0.05056
957.71796,0.04820
955.65835,0.04598
953.59874,0.04420
951.53914,0.04291
949.47953,0.04199
947.41992,0.04130
945.36031,0.04074
943.30070,0.04033
941.24109,0.04010
939.18148,0.03992
937.12188,0.03978
935.06227,0.03976
933.00266,0.03986
930.94305,0.04005
928.88344,0.04021
926.82383,0.04034
924.76422,0.04028
922.70462,0.03988
920.64501,0.03928
918.58540,0.03856
916.52579,0.03785
914.46618,0.03734
912.40657,0.03697
910.34696,0.03657
908.28736,0.03624
906.22775,0.03613
904.16814,0.03618
902.10853,0.03627
900.04892,0.03630
897.98931,0.03613
895.92971,0.03580
893.87010,0.03546
891.81049,0.03517
889.75088,0.03491
887.69127,0.03474
885.63166,0.03460
883.57205,0.03439
881.51245,0.03413
879.45284,0.03394
877.39323,0.03388
875.33362,0.03377
873.27401,0.03358
871.21440,0.03340
869.15479,0.03318
867.09519,0.03293
865.03558,0.03268
862.97597,0.03250
860.91636,0.03249
858.85675,0.03271
856.79714,0.03303
854.73753,0.03332
852.67793,0.03355
850.61832,0.03362
848.55871,0.03356
846.49910,0.03352
844.43949,0.03356
842.37988,0.03370
840.32028,0.03390
838.26067,0.03407
836.20106,0.03424
834.14145,0.03454
832.08184,0.03495
830.02223,0.03530
827.96262,0.03551
825.90302,0.03553
823.84341,0.03544
821.78380,0.03526
819.72419,0.03506
817.66458,0.03499
815.60497,0.03497
813.54536,0.03478
811.48576,0.03462
809.42615,0.03471
807.36654,0.03493
805.30693,0.03505
803.24732,0.03510
801.18771,0.03526
799.12810,0.03534
797.06850,0.03517
795.00889,0.03501
792.94928,0.03506
790.88967,0.03526
788.83006,0.03564
786.77045,0.03618
784.71085,0.03684
782.65124,0.03762
780.59163,0.03832
778.53202,0.03869
776.47241,0.03893
774.41280,0.03918
772.35319,0.03938
770.29359,0.03957
768.23398,0.03977
766.17437,0.03984
764.11476,0.03983
762.05515,0.03985
759.99554,0.03988
757.93593,0.03997
755.87633,0.04011
753.81672,0.04022
751.75711,0.04029
749.69750,0.04043
747.63789,0.04059
745.57828,0.04066
743.51867,0.04074
741.45907,0.04085
739.39946,0.04086
737.33985,0.04081
735.28024,0.04088
733.22063,0.04111
731.16102,0.04154
729.10142,0.04217
727.04181,0.04286
724.98220,0.04371
722.92259,0.04498
720.86298,0.04649
718.80337,0.04794
716.74376,0.04948
714.68416,0.05118
712.62455,0.05288
710.56494,0.05452
708.50533,0.05610
706.44572,0.05758
704.38611,0.05892
702.32650,0.05996
700.26690,0.06065
698.20729,0.06123
696.14768,0.06171
694.08807,0.06202
692.02846,0.06223
689.96885,0.06241
687.90924,0.06249
685.84964,0.06240
683.79003,0.06223
681.73042,0.06209
679.67081,0.06205
677.61120,0.06196
675.55159,0.06173
673.49199,0.06141
671.43238,0.06112
669.37277,0.06108
667.31316,0.06121
665.25355,0.06106
663.19394,0.06083
661.13433,0.06070
659.07473,0.06049
657.01512,0.06015
654.95551,0.05991
652.89590,0.05986
650.83629,0.05967
648.77668,0.05936
646.71707,0.05917
644.65747,0.05901
642.59786,0.05888
640.53825,0.05890
638.47864,0.05882
636.41903,0.05861
634.35942,0.05850
632.29981,0.05872
630.24021,0.05921
628.18060,0.05986
626.12099,0.06080
624.06138,0.06193
622.00177,0.06290
619.94216,0.06353
617.88256,0.06388
615.82295,0.06403
613.76334,0.06385
611.70373,0.06332
609.64412,0.06277
607.58451,0.06233
605.52490,0.06190
603.46530,0.06146
601.40569,0.06095
599.34608,0.06031
597.28647,0.05964
595.22686,0.05916
593.16725,0.05899
591.10764,0.05892
589.04804,0.05884
586.98843,0.05884
584.92882,0.05875
582.86921,0.05842
580.80960,0.05810
578.74999,0.05808
576.69039,0.05826
574.63078,0.05840
572.57117,0.05846
570.51156,0.05860
568.45195,0.05869
566.39234,0.05840
564.33273,0.05799
562.27313,0.05793
560.21352,0.05824
558.15391,0.05856
556.09430,0.05867
554.03469,0.05883
551.97508,0.05909
549.91547,0.05920
547.85587,0.05918
545.79626,0.05929
543.73665,0.05952
541.67704,0.05963
539.61743,0.05959
537.55782,0.05950
535.49821,0.05952
533.43861,0.05956
531.37900,0.05940
529.31939,0.05901
527.25978,0.05853
525.20017,0.05802
523.14056,0.05756
521.08096,0.05731
519.02135,0.05729
516.96174,0.05719
514.90213,0.05690
512.84252,0.05664
510.78291,0.05636
508.72330,0.05591
506.66370,0.05556
504.60409,0.05539
502.54448,0.05527
500.48487,0.05531
498.42526,0.05545
496.36565,0.05538
494.30604,0.05491
492.24644,0.05417
490.18683,0.05357
488.12722,0.05332
486.06761,0.05324
484.00800,0.05327
481.94839,0.05315
479.88878,0.05266
477.82918,0.05218
475.76957,0.05175
473.70996,0.05129
471.65035,0.05099
469.59074,0.05081
467.53113,0.05054
465.47153,0.05006
463.41192,0.04966
461.35231,0.04935
459.29270,0.04910
457.23309,0.04925
455.17348,0.04983
453.11387,0.05084
451.05427,0.05232
448.99466,0.05408
446.93505,0.05561
444.87544,0.05635
442.81583,0.05639
440.75622,0.05603
438.69661,0.05560
436.63701,0.05535
434.57740,0.05506
432.51779,0.05443
430.45818,0.05332
428.39857,0.05224
426.33896,0.05167
424.27935,0.05127
422.21975,0.05060
420.16014,0.04965
418.10053,0.04894
416.04092,0.04881
413.98131,0.04861
411.92170,0.04779
409.86210,0.04687
407.80249,0.04620
405.74288,0.04535
403.68327,0.04463
401.62366,0.04457
399.56405,0.04434
