3997.70013,0.04564
3995.64052,0.04524
3993.58092,0.04463
3991.52131,0.04505
3989.46170,0.04563
3987.40209,0.04511
3985.34248,0.04382
3983.28287,0.04316
3981.22327,0.04362
3979.16366,0.04411
3977.10405,0.04392
3975.04444,0.04339
3972.98483,0.04301
3970.92522,0.04303
3968.86561,0.04337
3966.80601,0.04379
3964.74640,0.04419
3962.68679,0.04434
3960.62718,0.04398
3958.56757,0.04388
3956.50796,0.04466
3954.44835,0.04480
3952.38875,0.04356
3950.32914,0.04306
3948.26953,0.04385
3946.20992,0.04406
3944.15031,0.04371
3942.09070,0.04388
3940.03109,0.04406
3937.97149,0.04365
3935.91188,0.04315
3933.85227,0.04337
3931.79266,0.04400
3929.73305,0.04412
3927.67344,0.04379
3925.61384,0.04346
3923.55423,0.04331
3921.49462,0.04307
3919.43501,0.04269
3917.37540,0.04278
3915.31579,0.04342
3913.25618,0.04378
3911.19658,0.04355
3909.13697,0.04327
3907.07736,0.04349
3905.01775,0.04370
3902.95814,0.04305
3900.89853,0.04242
3898.83892,0.04281
3896.77932,0.04332
3894.71971,0.04306
3892.66010,0.04248
3890.60049,0.04256
3888.54088,0.04338
3886.48127,0.04398
3884.42166,0.04358
3882.36206,0.04290
3880.30245,0.04313
3878.24284,0.04398
3876.18323,0.04416
3874.12362,0.04342
3872.06401,0.04261
3870.00441,0.04258
3867.94480,0.04339
3865.88519,0.04348
3863.82558,0.04205
3861.76597,0.04101
3859.70636,0.04113
3857.64675,0.04139
3855.58715,0.04147
3853.52754,0.04193
3851.46793,0.04295
3849.40832,0.04345
3847.34871,0.04328
3845.28910,0.04241
3843.22949,0.04148
3841.16989,0.04126
3839.11028,0.04162
3837.05067,0.04237
3834.99106,0.04243
3832.93145,0.04160
3830.87184,0.04108
3828.81223,0.04131
3826.75263,0.04143
3824.69302,0.04087
3822.63341,0.04044
3820.57380,0.04096
3818.51419,0.04175
3816.45458,0.04192
3814.39498,0.04151
3812.33537,0.04136
3810.27576,0.04162
3808.21615,0.04154
3806.15654,0.04123
3804.09693,0.04138
3802.03732,0.04159
3799.97772,0.04169
3797.91811,0.04172
3795.85850,0.04133
3793.79889,0.04088
3791.73928,0.04087
3789.67967,0.04099
3787.62006,0.04080
3785.56046,0.04033
3783.50085,0.04004
3781.44124,0.04020
3779.38163,0.04055
3777.32202,0.04081
3775.26241,0.04084
3773.20280,0.04054
3771.14320,0.03985
3769.08359,0.03937
3767.02398,0.03986
3764.96437,0.04055
3762.90476,0.04020
3760.84515,0.03907
3758.78555,0.03870
3756.72594,0.03932
3754.66633,0.03985
3752.60672,0.04026
3750.54711,0.04068
3748.48750,0.04104
3746.42789,0.04061
3744.36829,0.03895
3742.30868,0.03820
3740.24907,0.03860
3738.18946,0.03877
3736.12985,0.03880
3734.07024,0.03911
3732.01063,0.03914
3729.95103,0.03882
3727.89142,0.03888
3725.83181,0.03927
3723.77220,0.03962
3721.71259,0.03981
3719.65298,0.03926
3717.59337,0.03806
3715.53377,0.03755
3713.47416,0.03828
3711.41455,0.03912
3709.35494,0.03891
3707.29533,0.03854
3705.23572,0.03871
3703.17612,0.03881
3701.11651,0.03831
3699.05690,0.03820
3696.99729,0.03875
3694.93768,0.03912
3692.87807,0.03907
3690.81846,0.03851
3688.75886,0.03744
3686.69925,0.03691
3684.63964,0.03704
3682.58003,0.03732
3680.52042,0.03786
3678.46081,0.03871
3676.40120,0.03899
3674.34160,0.03832
3672.28199,0.03808
3670.22238,0.03835
3668.16277,0.03864
3666.10316,0.03908
3664.04355,0.03925
3661.98394,0.03910
3659.92434,0.03903
3657.86473,0.03883
3655.80512,0.03878
3653.74551,0.03951
3651.68590,0.04045
3649.62629,0.04093
3647.56669,0.04077
3645.50708,0.04050
3643.44747,0.04061
3641.38786,0.04094
3639.32825,0.04135
3637.26864,0.04168
3635.20903,0.04185
3633.14943,0.04217
3631.08982,0.04274
3629.03021,0.04365
3626.97060,0.04411
3624.91099,0.04353
3622.85138,0.04283
3620.79177,0.04302
3618.73217,0.04367
3616.67256,0.04404
3614.61295,0.04463
3612.55334,0.04538
3610.49373,0.04577
3608.43412,0.04577
3606.37451,0.04614
3604.31491,0.04684
3602.25530,0.04716
3600.19569,0.04774
3598.13608,0.04866
3596.07647,0.04885
3594.01686,0.04914
3591.95726,0.05031
3589.89765,0.05108
3587.83804,0.05118
3585.77843,0.05154
3583.71882,0.05185
3581.65921,0.05176
3579.59960,0.05171
3577.54000,0.05170
3575.48039,0.05179
3573.42078,0.05198
3571.36117,0.05219
3569.30156,0.05301
3567.24195,0.05423
3565.18234,0.05477
3563.12274,0.05504
3561.06313,0.05549
3559.00352,0.05580
3556.94391,0.05615
3554.88430,0.05687
3552.82469,0.05771
3550.76508,0.05831
3548.70548,0.05906
3546.64587,0.06008
3544.58626,0.06045
3542.52665,0.06020
3540.46704,0.05988
3538.40743,0.05969
3536.34783,0.06008
3534.28822,0.06095
3532.22861,0.06134
3530.16900,0.06101
3528.10939,0.06105
3526.04978,0.06178
3523.99017,0.06222
3521.93057,0.06233
3519.87096,0.06277
3517.81135,0.06353
3515.75174,0.06430
3513.69213,0.06486
3511.63252,0.06517
3509.57291,0.06529
3507.51331,0.06544
3505.45370,0.06550
3503.39409,0.06527
3501.33448,0.06536
3499.27487,0.06587
3497.21526,0.06617
3495.15565,0.06648
3493.09605,0.06706
3491.03644,0.06766
3488.97683,0.06791
3486.91722,0.06765
3484.85761,0.06754
3482.79800,0.06806
3480.73840,0.06862
3478.67879,0.06868
3476.61918,0.06864
3474.55957,0.06884
3472.49996,0.06897
3470.44035,0.06882
3468.38074,0.06905
3466.32114,0.06985
3464.26153,0.07038
3462.20192,0.07041
3460.14231,0.07039
3458.08270,0.07060
3456.02309,0.07091
3453.96348,0.07084
3451.90388,0.07079
3449.84427,0.07139
3447.78466,0.07233
3445.72505,0.07276
3443.66544,0.07228
3441.60583,0.07181
3439.54622,0.07234
3437.48662,0.07344
3435.42701,0.07395
3433.36740,0.07376
3431.30779,0.07388
3429.24818,0.07443
3427.18857,0.07480
3425.12897,0.07515
3423.06936,0.07587
3421.00975,0.07658
3418.95014,0.07674
3416.89053,0.07671
3414.83092,0.07700
3412.77131,0.07739
3410.71171,0.07760
3408.65210,0.07786
3406.59249,0.07836
3404.53288,0.07906
3402.47327,0.07968
3400.41366,0.08006
3398.35405,0.08073
3396.29445,0.08142
3394.23484,0.08150
3392.17523,0.08170
3390.11562,0.08237
3388.05601,0.08309
3385.99640,0.08365
3383.93679,0.08381
3381.87719,0.08355
3379.81758,0.08362
3377.75797,0.08436
3375.69836,0.08499
3373.63875,0.08521
3371.57914,0.08551
3369.51954,0.08607
3367.45993,0.08678
3365.40032,0.08751
3363.34071,0.08822
3361.28110,0.08899
3359.22149,0.08971
3357.16188,0.09013
3355.10228,0.09056
3353.04267,0.09136
3350.98306,0.09246
3348.92345,0.09357
3346.86384,0.09481
3344.80423,0.09628
3342.74462,0.09746
3340.68502,0.09824
3338.62541,0.09907
3336.56580,0.10036
3334.50619,0.10185
3332.44658,0.10337
3330.38697,0.10507
3328.32736,0.10660
3326.26776,0.10787
3324.20815,0.10933
3322.14854,0.11143
3320.08893,0.11374
3318.02932,0.11550
3315.96971,0.11698
3313.91011,0.11884
3311.85050,0.12130
3309.79089,0.12409
3307.73128,0.12706
3305.67167,0.13015
3303.61206,0.13322
3301.55245,0.13576
3299.49285,0.13791
3297.43324,0.14101
3295.37363,0.14525
3293.31402,0.14928
3291.25441,0.15257
3289.19480,0.15560
3287.13519,0.15874
3285.07559,0.16233
3283.01598,0.16623
3280.95637,0.16951
3278.89676,0.17194
3276.83715,0.17400
3274.77754,0.17605
3272.71793,0.17788
3270.65833,0.17890
3268.59872,0.17912
3266.53911,0.17876
3264.47950,0.17748
3262.41989,0.17553
3260.36028,0.17375
3258.30068,0.17185
3256.24107,0.16961
3254.18146,0.16743
3252.12185,0.16514
3250.06224,0.16267
3248.00263,0.16047
3245.94302,0.15866
3243.88342,0.15680
3241.82381,0.15453
3239.76420,0.15217
3237.70459,0.15013
3235.64498,0.14818
3233.58537,0.14645
3231.52576,0.14499
3229.46616,0.14347
3227.40655,0.14194
3225.34694,0.14028
3223.28733,0.13856
3221.22772,0.13724
3219.16811,0.13599
3217.10850,0.13455
3215.04890,0.13309
3212.98929,0.13165
3210.92968,0.13032
3208.87007,0.12902
3206.81046,0.12760
3204.75085,0.12609
3202.69125,0.12460
3200.63164,0.12339
3198.57203,0.12246
3196.51242,0.12142
3194.45281,0.12037
3192.39320,0.11951
3190.33359,0.11821
3188.27399,0.11671
3186.21438,0.11585
3184.15477,0.11507
3182.09516,0.11390
3180.03555,0.11289
3177.97594,0.11179
3175.91633,0.11031
3173.85673,0.10896
3171.79712,0.10782
3169.73751,0.10671
3167.67790,0.10557
3165.61829,0.10431
3163.55868,0.10319
3161.49907,0.10239
3159.43947,0.10161
3157.37986,0.10079
3155.32025,0.10044
3153.26064,0.10053
3151.20103,0.10006
3149.14142,0.09852
3147.08182,0.09692
3145.02221,0.09631
3142.96260,0.09598
3140.90299,0.09522
3138.84338,0.09453
3136.78377,0.09408
3134.72416,0.09378
3132.66456,0.09355
3130.60495,0.09305
3128.54534,0.09222
3126.48573,0.09150
3124.42612,0.09117
3122.36651,0.09106
3120.30690,0.09115
3118.24730,0.09144
3116.18769,0.09173
3114.12808,0.09195
3112.06847,0.09191
3110.00886,0.09182
3107.94925,0.09196
3105.88965,0.09187
3103.83004,0.09163
3101.77043,0.09168
3099.71082,0.09202
3097.65121,0.09255
3095.59160,0.09300
3093.53199,0.09343
3091.47239,0.09395
3089.41278,0.09441
3087.35317,0.09492
3085.29356,0.09545
3083.23395,0.09579
3081.17434,0.09591
3079.11473,0.09607
3077.05513,0.09619
3074.99552,0.09614
3072.93591,0.09629
3070.87630,0.09656
3068.81669,0.09674
3066.75708,0.09695
3064.69747,0.09685
3062.63787,0.09611
3060.57826,0.09535
3058.51865,0.09513
3056.45904,0.09493
3054.39943,0.09430
3052.33982,0.09337
3050.28022,0.09232
3048.22061,0.09154
3046.16100,0.09093
3044.10139,0.09004
3042.04178,0.08910
3039.98217,0.08837
3037.92256,0.08766
3035.86296,0.08693
3033.80335,0.08614
3031.74374,0.08540
3029.68413,0.08474
3027.62452,0.08418
3025.56491,0.08381
3023.50530,0.08340
3021.44570,0.08303
3019.38609,0.08265
3017.32648,0.08199
3015.26687,0.08139
3013.20726,0.08119
3011.14765,0.08108
3009.08804,0.08065
3007.02844,0.07998
3004.96883,0.07947
3002.90922,0.07944
3000.84961,0.07982
2998.79000,0.08045
2996.73039,0.08118
2994.67079,0.08209
2992.61118,0.08302
2990.55157,0.08345
2988.49196,0.08366
2986.43235,0.08420
2984.37274,0.08500
2982.31313,0.08596
2980.25353,0.08700
2978.19392,0.08745
2976.13431,0.08734
2974.07470,0.08736
2972.01509,0.08761
2969.95548,0.08782
2967.89587,0.08783
2965.83627,0.08733
2963.77666,0.08623
2961.71705,0.08491
2959.65744,0.08362
2957.59783,0.08274
2955.53822,0.08258
2953.47861,0.08249
2951.41901,0.08216
2949.35940,0.08209
2947.29979,0.08239
2945.24018,0.08286
2943.18057,0.08342
2941.12096,0.08408
2939.06136,0.08512
2937.00175,0.08669
2934.94214,0.08853
2932.88253,0.09015
2930.82292,0.09122
2928.76331,0.09181
2926.70370,0.09189
2924.64410,0.09129
2922.58449,0.09005
2920.52488,0.08869
2918.46527,0.08761
2916.40566,0.08637
2914.34605,0.08483
2912.28644,0.08333
2910.22684,0.08208
2908.16723,0.08107
2906.10762,0.08011
2904.04801,0.07920
2901.98840,0.07842
2899.92879,0.07792
2897.86918,0.07756
2895.80958,0.07710
2893.74997,0.07666
2891.69036,0.07628
2889.63075,0.07597
2887.57114,0.07553
2885.51153,0.07498
2883.45193,0.07483
2881.39232,0.07516
2879.33271,0.07542
2877.27310,0.07552
2875.21349,0.07590
2873.15388,0.07647
2871.09427,0.07664
2869.03467,0.07618
2866.97506,0.07543
2864.91545,0.07493
2862.85584,0.07478
2860.79623,0.07476
2858.73662,0.07471
2856.67701,0.07467
2854.61741,0.07470
2852.55780,0.07464
2850.49819,0.07418
2848.43858,0.07304
2846.37897,0.07148
2844.31936,0.07019
2842.25975,0.06962
2840.20015,0.06952
2838.14054,0.06925
2836.08093,0.06870
2834.02132,0.06829
2831.96171,0.06808
2829.90210,0.06763
2827.84250,0.06695
2825.78289,0.06645
2823.72328,0.06620
2821.66367,0.06604
2819.60406,0.06595
2817.54445,0.06601
2815.48484,0.06616
2813.42524,0.06601
2811.36563,0.06555
2809.30602,0.06530
2807.24641,0.06525
2805.18680,0.06504
2803.12719,0.06470
2801.06758,0.06446
2799.00798,0.06446
2796.94837,0.06447
2794.88876,0.06416
2792.82915,0.06376
2790.76954,0.06363
2788.70993,0.06362
2786.65032,0.06353
2784.59072,0.06336
2782.53111,0.06308
2780.47150,0.06291
2778.41189,0.06289
2776.35228,0.06286
2774.29267,0.06284
2772.23307,0.06275
2770.17346,0.06237
2768.11385,0.06200
2766.05424,0.06199
2763.99463,0.06200
2761.93502,0.06187
2759.87541,0.06180
2757.81581,0.06162
2755.75620,0.06118
2753.69659,0.06072
2751.63698,0.06040
2749.57737,0.06016
2747.51776,0.06008
2745.45815,0.06001
2743.39855,0.05973
2741.33894,0.05940
2739.27933,0.05930
2737.21972,0.05931
2735.16011,0.05923
2733.10050,0.05916
2731.04089,0.05911
2728.98129,0.05886
2726.92168,0.05840
2724.86207,0.05811
2722.80246,0.05806
2720.74285,0.05806
2718.68324,0.05785
2716.62364,0.05739
2714.56403,0.05701
2712.50442,0.05695
2710.44481,0.05703
2708.38520,0.05693
2706.32559,0.05664
2704.26598,0.05644
2702.20638,0.05636
2700.14677,0.05628
2698.08716,0.05637
2696.02755,0.05650
2693.96794,0.05642
2691.90833,0.05623
2689.84872,0.05594
2687.78912,0.05548
2685.72951,0.05515
2683.66990,0.05512
2681.61029,0.05516
2679.55068,0.05524
2677.49107,0.05534
2675.43146,0.05519
2673.37186,0.05487
2671.31225,0.05469
2669.25264,0.05467
2667.19303,0.05466
2665.13342,0.05464
2663.07381,0.05454
2661.01421,0.05437
2658.95460,0.05426
2656.89499,0.05413
2654.83538,0.05392
2652.77577,0.05361
2650.71616,0.05334
2648.65655,0.05331
2646.59695,0.05322
2644.53734,0.05290
2642.47773,0.05278
2640.41812,0.05296
2638.35851,0.05304
2636.29890,0.05287
2634.23929,0.05261
2632.17969,0.05231
2630.12008,0.05202
2628.06047,0.05179
2626.00086,0.05161
2623.94125,0.05154
2621.88164,0.05162
2619.82203,0.05168
2617.76243,0.05173
2615.70282,0.05178
2613.64321,0.05139
2611.58360,0.05062
2609.52399,0.05004
2607.46438,0.04983
2605.40478,0.04975
2603.34517,0.04961
2601.28556,0.04949
2599.22595,0.04949
2597.16634,0.04963
2595.10673,0.04980
2593.04712,0.04981
2590.98752,0.04962
2588.92791,0.04926
2586.86830,0.04886
2584.80869,0.04858
2582.74908,0.04819
2580.68947,0.04780
2578.62986,0.04787
2576.57026,0.04801
2574.51065,0.04803
2572.45104,0.04807
2570.39143,0.04797
2568.33182,0.04772
2566.27221,0.04747
2564.21260,0.04743
2562.15300,0.04773
2560.09339,0.04809
2558.03378,0.04795
2555.97417,0.04727
2553.91456,0.04694
2551.85495,0.04730
2549.79535,0.04750
2547.73574,0.04725
2545.67613,0.04697
2543.61652,0.04679
2541.55691,0.04659
2539.49730,0.04634
2537.43769,0.04604
2535.37809,0.04557
2533.31848,0.04526
2531.25887,0.04533
2529.19926,0.04556
2527.13965,0.04563
2525.08004,0.04547
2523.02043,0.04541
2520.96083,0.04555
2518.90122,0.04554
2516.84161,0.04529
2514.78200,0.04497
2512.72239,0.04474
2510.66278,0.04496
2508.60317,0.04534
2506.54357,0.04536
2504.48396,0.04519
2502.42435,0.04499
2500.36474,0.04486
2498.30513,0.04501
2496.24552,0.04515
2494.18592,0.04501
2492.12631,0.04470
2490.06670,0.04428
2488.00709,0.04398
2485.94748,0.04408
2483.88787,0.04437
2481.82826,0.04444
2479.76866,0.04426
2477.70905,0.04411
2475.64944,0.04407
2473.58983,0.04398
2471.53022,0.04359
2469.47061,0.04323
2467.41100,0.04336
2465.35140,0.04356
2463.29179,0.04362
2461.23218,0.04369
2459.17257,0.04365
2457.11296,0.04347
2455.05335,0.04342
2452.99374,0.04341
2450.93414,0.04310
2448.87453,0.04265
2446.81492,0.04245
2444.75531,0.04250
2442.69570,0.04269
2440.63609,0.04313
2438.57649,0.04359
2436.51688,0.04356
2434.45727,0.04314
2432.39766,0.04269
2430.33805,0.04211
2428.27844,0.04167
2426.21883,0.04170
2424.15923,0.04166
2422.09962,0.04146
2420.04001,0.04140
2417.98040,0.04151
2415.92079,0.04190
2413.86118,0.04212
2411.80157,0.04191
2409.74197,0.04177
2407.68236,0.04171
2405.62275,0.04153
2403.56314,0.04146
2401.50353,0.04152
2399.44392,0.04152
2397.38431,0.04139
2395.32471,0.04142
2393.26510,0.04138
2391.20549,0.04096
2389.14588,0.04078
2387.08627,0.04099
2385.02666,0.04103
2382.96706,0.04090
2380.90745,0.04090
2378.84784,0.04100
2376.78823,0.04126
2374.72862,0.04160
2372.66901,0.04153
2370.60940,0.04120
2368.54980,0.04103
2366.49019,0.04088
2364.43058,0.04083
2362.37097,0.04090
2360.31136,0.04074
2358.25175,0.04065
2356.19214,0.04097
2354.13254,0.04129
2352.07293,0.04130
2350.01332,0.04111
2347.95371,0.04088
2345.89410,0.04091
2343.83449,0.04110
2341.77488,0.04100
2339.71528,0.04080
2337.65567,0.04064
2335.59606,0.04055
2333.53645,0.04072
2331.47684,0.04106
2329.41723,0.04159
2327.35763,0.04229
2325.29802,0.04247
2323.23841,0.04197
2321.17880,0.04139
2319.11919,0.04092
2317.05958,0.04060
2314.99997,0.04026
2312.94037,0.03997
2310.88076,0.04005
2308.82115,0.04025
2306.76154,0.04023
2304.70193,0.04000
2302.64232,0.03962
2300.58271,0.03951
2298.52311,0.03973
2296.46350,0.03956
2294.40389,0.03925
2292.34428,0.03922
2290.28467,0.03909
2288.22506,0.03901
2286.16545,0.03917
2284.10585,0.03900
2282.04624,0.03833
2279.98663,0.03783
2277.92702,0.03781
2275.86741,0.03775
2273.80780,0.03737
2271.74820,0.03709
2269.68859,0.03704
2267.62898,0.03710
2265.56937,0.03710
2263.50976,0.03681
2261.45015,0.03636
2259.39054,0.03554
2257.33094,0.03455
2255.27133,0.03438
2253.21172,0.03482
2251.15211,0.03485
2249.09250,0.03455
2247.03289,0.03464
2244.97328,0.03488
2242.91368,0.03470
2240.85407,0.03433
2238.79446,0.03427
2236.73485,0.03476
2234.67524,0.03523
2232.61563,0.03489
2230.55602,0.03412
2228.49642,0.03379
2226.43681,0.03372
2224.37720,0.03327
2222.31759,0.03247
2220.25798,0.03186
2218.19837,0.03179
2216.13877,0.03207
2214.07916,0.03240
2212.01955,0.03254
2209.95994,0.03235
2207.90033,0.03232
2205.84072,0.03266
2203.78111,0.03276
2201.72151,0.03223
2199.66190,0.03158
2197.60229,0.03156
2195.54268,0.03207
2193.48307,0.03177
2191.42346,0.03065
2189.36385,0.03076
2187.30425,0.03173
2185.24464,0.03117
2183.18503,0.02989
2181.12542,0.02938
2179.06581,0.02903
2177.00620,0.02891
2174.94659,0.02885
2172.88699,0.02848
2170.82738,0.02884
2168.76777,0.02986
2166.70816,0.03049
2164.64855,0.03065
2162.58894,0.03017
2160.52934,0.02811
2158.46973,0.02505
2156.41012,0.02358
2154.35051,0.02409
2152.29090,0.02514
2150.23129,0.02620
2148.17168,0.02741
2146.11208,0.02891
2144.05247,0.03007
2141.99286,0.02994
2139.93325,0.02941
2137.87364,0.02919
2135.81403,0.02850
2133.75442,0.02798
2131.69482,0.02883
2129.63521,0.03025
2127.57560,0.03096
2125.51599,0.03133
2123.45638,0.03156
2121.39677,0.03159
2119.33716,0.03189
2117.27756,0.03219
2115.21795,0.03234
2113.15834,0.03241
2111.09873,0.03193
2109.03912,0.03129
2106.97951,0.03124
2104.91991,0.03160
2102.86030,0.03184
2100.80069,0.03185
2098.74108,0.03169
2096.68147,0.03116
2094.62186,0.03061
2092.56225,0.03043
2090.50265,0.03039
2088.44304,0.03043
2086.38343,0.03036
2084.32382,0.03014
2082.26421,0.03007
2080.20460,0.03009
2078.14499,0.03022
2076.08539,0.03060
2074.02578,0.03050
2071.96617,0.02982
2069.90656,0.02967
2067.84695,0.03013
2065.78734,0.02998
2063.72773,0.02923
2061.66813,0.02894
2059.60852,0.02881
2057.54891,0.02835
2055.48930,0.02796
2053.42969,0.02804
2051.37008,0.02811
2049.31048,0.02757
2047.25087,0.02646
2045.19126,0.02553
2043.13165,0.02552
2041.07204,0.02600
2039.01243,0.02594
2036.95282,0.02551
2034.89322,0.02561
2032.83361,0.02587
2030.77400,0.02549
2028.71439,0.02545
2026.65478,0.02622
2024.59517,0.02598
2022.53556,0.02491
2020.47596,0.02459
2018.41635,0.02464
2016.35674,0.02443
2014.29713,0.02437
2012.23752,0.02475
2010.17791,0.02452
2008.11830,0.02343
2006.05870,0.02290
2003.99909,0.02386
2001.93948,0.02544
1999.87987,0.02558
1997.82026,0.02457
1995.76065,0.02446
1993.70105,0.02499
1991.64144,0.02489
1989.58183,0.02423
1987.52222,0.02386
1985.46261,0.02424
1983.40300,0.02473
1981.34339,0.02520
1979.28379,0.02559
1977.22418,0.02501
1975.16457,0.02387
1973.10496,0.02299
1971.04535,0.02247
1968.98574,0.02218
1966.92613,0.02217
1964.86653,0.02269
1962.80692,0.02356
1960.74731,0.02373
1958.68770,0.02276
1956.62809,0.02214
1954.56848,0.02252
1952.50887,0.02303
1950.44927,0.02331
1948.38966,0.02359
1946.33005,0.02407
1944.27044,0.02439
1942.21083,0.02418
1940.15122,0.02402
1938.09162,0.02425
1936.03201,0.02422
1933.97240,0.02382
1931.91279,0.02370
1929.85318,0.02379
1927.79357,0.02392
1925.73396,0.02410
1923.67436,0.02421
1921.61475,0.02456
1919.55514,0.02509
1917.49553,0.02519
1915.43592,0.02487
1913.37631,0.02452
1911.31670,0.02423
1909.25710,0.02410
1907.19749,0.02431
1905.13788,0.02476
1903.07827,0.02512
1901.01866,0.02504
1898.95905,0.02464
1896.89944,0.02429
1894.83984,0.02409
1892.78023,0.02402
1890.72062,0.02400
1888.66101,0.02363
1886.60140,0.02315
1884.54179,0.02308
1882.48219,0.02327
1880.42258,0.02326
1878.36297,0.02298
1876.30336,0.02290
1874.24375,0.02297
1872.18414,0.02293
1870.12453,0.02284
1868.06493,0.02281
1866.00532,0.02291
1863.94571,0.02319
1861.88610,0.02342
1859.82649,0.02348
1857.76688,0.02337
1855.70727,0.02290
1853.64767,0.02242
1851.58806,0.02236
1849.52845,0.02246
1847.46884,0.02234
1845.40923,0.02222
1843.34962,0.02225
1841.29002,0.02220
1839.23041,0.02208
1837.17080,0.02192
1835.11119,0.02175
1833.05158,0.02170
1830.99197,0.02178
1828.93236,0.02177
1826.87276,0.02149
1824.81315,0.02108
1822.75354,0.02070
1820.69393,0.02039
1818.63432,0.02034
1816.57471,0.02057
1814.51510,0.02063
1812.45550,0.02046
1810.39589,0.02031
1808.33628,0.02019
1806.27667,0.02005
1804.21706,0.02000
1802.15745,0.02002
1800.09784,0.01999
1798.03824,0.01992
1795.97863,0.01985
1793.91902,0.01974
1791.85941,0.01964
1789.79980,0.01958
1787.74019,0.01961
1785.68059,0.01951
1783.62098,0.01913
1781.56137,0.01885
1779.50176,0.01881
1777.44215,0.01872
1775.38254,0.01857
1773.32293,0.01838
1771.26333,0.01812
1769.20372,0.01802
1767.14411,0.01790
1765.08450,0.01768
1763.02489,0.01762
1760.96528,0.01770
1758.90567,0.01773
1756.84607,0.01754
1754.78646,0.01730
1752.72685,0.01721
1750.66724,0.01722
1748.60763,0.01708
1746.54802,0.01688
1744.48841,0.01669
1742.42881,0.01655
1740.36920,0.01661
1738.30959,0.01678
1736.24998,0.01680
1734.19037,0.01665
1732.13076,0.01656
1730.07116,0.01656
1728.01155,0.01664
1725.95194,0.01677
1723.89233,0.01701
1721.83272,0.01733
1719.77311,0.01777
1717.71350,0.01837
1715.65390,0.01921
1713.59429,0.02045
1711.53468,0.02216
1709.47507,0.02438
1707.41546,0.02743
1705.35585,0.03186
1703.29624,0.03672
1701.23664,0.04235
1699.17703,0.04864
1697.11742,0.05237
1695.05781,0.05426
1692.99820,0.05545
1690.93859,0.05647
1688.87898,0.05781
1686.81938,0.05930
1684.75977,0.06144
1682.70016,0.06423
1680.64055,0.06659
1678.58094,0.06889
1676.52133,0.07168
1674.46173,0.07509
1672.40212,0.07823
1670.34251,0.08142
1668.28290,0.08511
1666.22329,0.08829
1664.16368,0.09138
1662.10407,0.09513
1660.04447,0.09882
1657.98486,0.10193
1655.92525,0.10475
1653.86564,0.10889
1651.80603,0.11432
1649.74642,0.11754
1647.68681,0.12080
1645.62721,0.12559
1643.56760,0.13010
1641.50799,0.13439
1639.44838,0.13889
1637.38877,0.14390
1635.32916,0.15048
1633.26955,0.15659
1631.20995,0.16115
1629.15034,0.16559
1627.09073,0.16955
1625.03112,0.17219
1622.97151,0.17351
1620.91190,0.17317
1618.85230,0.17135
1616.79269,0.16836
1614.73308,0.16484
1612.67347,0.16141
1610.61386,0.15743
1608.55425,0.15236
1606.49464,0.14648
1604.43504,0.14029
1602.37543,0.13421
1600.31582,0.12880
1598.25621,0.12410
1596.19660,0.11969
1594.13699,0.11555
1592.07738,0.11181
1590.01778,0.10834
1587.95817,0.10514
1585.89856,0.10229
1583.83895,0.09996
1581.77934,0.09829
1579.71973,0.09707
1577.66012,0.09616
1575.60052,0.09577
1573.54091,0.09594
1571.48130,0.09654
1569.42169,0.09792
1567.36208,0.09964
1565.30247,0.10143
1563.24287,0.10337
1561.18326,0.10534
1559.12365,0.10874
1557.06404,0.11287
1555.00443,0.11579
1552.94482,0.11876
1550.88521,0.12183
1548.82561,0.12467
1546.76600,0.12714
1544.70639,0.12952
1542.64678,0.13219
1540.58717,0.13577
1538.52756,0.13988
1536.46795,0.14266
1534.40835,0.14525
1532.34874,0.14832
1530.28913,0.15087
1528.22952,0.15318
1526.16991,0.15580
1524.11030,0.15829
1522.05069,0.16114
1519.99109,0.16462
1517.93148,0.16810
1515.87187,0.17170
1513.81226,0.17429
1511.75265,0.17531
1509.69304,0.17535
1507.63344,0.17438
1505.57383,0.17209
1503.51422,0.16937
1501.45461,0.16644
1499.39500,0.16303
1497.33539,0.15904
1495.27578,0.15457
1493.21618,0.15028
1491.15657,0.14583
1489.09696,0.14073
1487.03735,0.13583
1484.97774,0.13148
1482.91813,0.12742
1480.85852,0.12349
1478.79892,0.11983
1476.73931,0.11654
1474.67970,0.11362
1472.62009,0.11096
1470.56048,0.10864
1468.50087,0.10670
1466.44126,0.10499
1464.38166,0.10388
1462.32205,0.10365
1460.26244,0.10414
1458.20283,0.10585
1456.14322,0.10912
1454.08361,0.11171
1452.02401,0.11349
1449.96440,0.11559
1447.90479,0.11823
1445.84518,0.12056
1443.78557,0.12153
1441.72596,0.12099
1439.66635,0.11924
1437.60675,0.11645
1435.54714,0.11295
1433.48753,0.10976
1431.42792,0.10688
1429.36831,0.10419
1427.30870,0.10202
1425.24909,0.10039
1423.18949,0.09922
1421.12988,0.09857
1419.07027,0.09845
1417.01066,0.09871
1414.95105,0.09912
1412.89144,0.09968
1410.83183,0.10029
1408.77223,0.10079
1406.71262,0.10131
1404.65301,0.10196
1402.59340,0.10237
1400.53379,0.10231
1398.47418,0.10219
1396.41458,0.10222
1394.35497,0.10222
1392.29536,0.10197
1390.23575,0.10158
1388.17614,0.10126
1386.11653,0.10098
1384.05692,0.10053
1381.99732,0.10000
1379.93771,0.09954
1377.87810,0.09931
1375.81849,0.09967
1373.75888,0.10097
1371.69927,0.10244
1369.63966,0.10267
1367.58006,0.10139
1365.52045,0.09950
1363.46084,0.09761
1361.40123,0.09578
1359.34162,0.09406
1357.28201,0.09236
1355.22240,0.09069
1353.16280,0.08921
1351.10319,0.08798
1349.04358,0.08702
1346.98397,0.08637
1344.92436,0.08593
1342.86475,0.08563
1340.80515,0.08538
1338.74554,0.08511
1336.68593,0.08487
1334.62632,0.08463
1332.56671,0.08409
1330.50710,0.08325
1328.44749,0.08239
1326.38789,0.08158
1324.32828,0.08079
1322.26867,0.08002
1320.20906,0.07939
1318.14945,0.07901
1316.08984,0.07879
1314.03023,0.07856
1311.97063,0.07830
1309.91102,0.07803
1307.85141,0.07774
1305.79180,0.07734
1303.73219,0.07677
1301.67258,0.07604
1299.61297,0.07531
1297.55337,0.07468
1295.49376,0.07412
1293.43415,0.07365
1291.37454,0.07329
1289.31493,0.07309
1287.25532,0.07298
1285.19572,0.07287
1283.13611,0.07285
1281.07650,0.07302
1279.01689,0.07333
1276.95728,0.07380
1274.89767,0.07457
1272.83806,0.07550
1270.77846,0.07635
1268.71885,0.07703
1266.65924,0.07769
1264.59963,0.07844
1262.54002,0.07917
1260.48041,0.07997
1258.42080,0.08093
1256.36120,0.08196
1254.30159,0.08301
1252.24198,0.08410
1250.18237,0.08544
1248.12276,0.08729
1246.06315,0.08957
1244.00354,0.09193
1241.94394,0.09407
1239.88433,0.09584
1237.82472,0.09718
1235.76511,0.09814
1233.70550,0.09880
1231.64589,0.09925
1229.58629,0.09959
1227.52668,0.09999
1225.46707,0.10061
1223.40746,0.10141
1221.34785,0.10210
1219.28824,0.10226
1217.22863,0.10167
1215.16903,0.10030
1213.10942,0.09823
1211.04981,0.09561
1208.99020,0.09274
1206.93059,0.08993
1204.87098,0.08728
1202.81137,0.08483
1200.75177,0.08254
1198.69216,0.08040
1196.63255,0.07844
1194.57294,0.07676
1192.51333,0.07545
1190.45372,0.07440
1188.39411,0.07351
1186.33451,0.07286
1184.27490,0.07255
1182.21529,0.07274
1180.15568,0.07352
1178.09607,0.07480
1176.03646,0.07655
1173.97686,0.07861
1171.91725,0.08050
1169.85764,0.08180
1167.79803,0.08234
1165.73842,0.08237
1163.67881,0.08202
1161.61920,0.08118
1159.55960,0.07984
1157.49999,0.07825
1155.44038,0.07661
1153.38077,0.07494
1151.32116,0.07328
1149.26155,0.07175
1147.20194,0.07040
1145.14234,0.06919
1143.08273,0.06807
1141.02312,0.06714
1138.96351,0.06635
1136.90390,0.06557
1134.84429,0.06481
1132.78468,0.06420
1130.72508,0.06371
1128.66547,0.06318
1126.60586,0.06256
1124.54625,0.06204
1122.48664,0.06172
1120.42703,0.06149
1118.36743,0.06124
1116.30782,0.06100
1114.24821,0.06071
1112.18860,0.06031
1110.12899,0.05999
1108.06938,0.05989
1106.00977,0.05989
1103.95017,0.05977
1101.89056,0.05949
1099.83095,0.05910
1097.77134,0.05865
1095.71173,0.05819
1093.65212,0.05780
1091.59251,0.05759
1089.53291,0.05766
1087.47330,0.05801
1085.41369,0.05846
1083.35408,0.05892
1081.29447,0.05937
1079.23486,0.05957
1077.17525,0.05941
1075.11565,0.05910
1073.05604,0.05890
1070.99643,0.05883
1068.93682,0.05876
1066.87721,0.05879
1064.81760,0.05900
1062.75800,0.05934
1060.69839,0.05987
1058.63878,0.06066
1056.57917,0.06169
1054.51956,0.06292
1052.45995,0.06415
1050.40034,0.06496
1048.34074,0.06480
1046.28113,0.06367
1044.22152,0.06216
1042.16191,0.06072
1040.10230,0.05953
1038.04269,0.05874
1035.98308,0.05824
1033.92348,0.05796
1031.86387,0.05789
1029.80426,0.05789
1027.74465,0.05783
1025.68504,0.05765
1023.62543,0.05732
1021.56582,0.05685
1019.50622,0.05632
1017.44661,0.05581
1015.38700,0.05540
1013.32739,0.05494
1011.26778,0.05426
1009.20817,0.05349
1007.14857,0.05275
1005.08896,0.05198
1003.02935,0.05116
1000.96974,0.05034
998.91013,0.04959
996.85052,0.04888
994.79091,0.04821
992.73131,0.04762
990.67170,0.04705
988.61209,0.04648
986.55248,0.04597
984.49287,0.04552
982.43326,0.04519
980.37365,0.04502
978.31405,0.04502
976.25444,0.04533
974.19483,0.04632
972.13522,0.04830
970.07561,0.05138
968.01600,0.05505
965.95639,0.05813
963.89679,0.05952
961.83718,0.05896
959.77757,0.05707
957.71796,0.05477
955.65835,0.05254
953.59874,0.05055
951.53914,0.04895
949.47953,0.04779
947.41992,0.04699
945.36031,0.04642
943.30070,0.04598
941.24109,0.04561
939.18148,0.04525
937.12188,0.04502
935.06227,0.04503
933.00266,0.04522
930.94305,0.04546
928.88344,0.04566
926.82383,0.04583
924.76422,0.04581
922.70462,0.04542
920.64501,0.04472
918.58540,0.04389
916.52579,0.04312
914.46618,0.04245
912.40657,0.04188
910.34696,0.04149
908.28736,0.04129
906.22775,0.04116
904.16814,0.04110
902.10853,0.04107
900.04892,0.04093
897.98931,0.04061
895.92971,0.04011
893.87010,0.03962
891.81049,0.03941
889.75088,0.03939
887.69127,0.03923
885.63166,0.03886
883.57205,0.03853
881.51245,0.03845
879.45284,0.03844
877.39323,0.03832
875.33362,0.03817
873.27401,0.03802
871.21440,0.03781
869.15479,0.03757
867.09519,0.03731
865.03558,0.03704
862.97597,0.03681
860.91636,0.03674
858.85675,0.03685
856.79714,0.03707
854.73753,0.03729
852.67793,0.03753
850.61832,0.03769
848.55871,0.03762
846.49910,0.03755
844.43949,0.03761
842.37988,0.03766
840.32028,0.03776
838.26067,0.03797
836.20106,0.03824
834.14145,0.03856
832.08184,0.03892
830.02223,0.03911
827.96262,0.03912
825.90302,0.03908
823.84341,0.03897
821.78380,0.03871
819.72419,0.03843
817.66458,0.03816
815.60497,0.03790
813.54536,0.03783
811.48576,0.03783
809.42615,0.03771
807.36654,0.03755
805.30693,0.03751
803.24732,0.03751
801.18771,0.03746
799.12810,0.03745
797.06850,0.03753
795.00889,0.03765
792.94928,0.03778
790.88967,0.03792
788.83006,0.03818
786.77045,0.03868
784.71085,0.03922
782.65124,0.03964
780.59163,0.04003
778.53202,0.04049
776.47241,0.04085
774.41280,0.04102
772.35319,0.04112
770.29359,0.04119
768.23398,0.04116
766.17437,0.04102
764.11476,0.04087
762.05515,0.04085
759.99554,0.04093
757.93593,0.04095
755.87633,0.04085
753.81672,0.04071
751.75711,0.04078
749.69750,0.04101
747.63789,0.04106
745.57828,0.04107
743.51867,0.04117
741.45907,0.04126
739.39946,0.04132
737.33985,0.04136
735.28024,0.04143
733.22063,0.04163
731.16102,0.04204
729.10142,0.04273
727.04181,0.04359
724.98220,0.04447
722.92259,0.04553
720.86298,0.04688
718.80337,0.04838
716.74376,0.04990
714.68416,0.05155
712.62455,0.05340
710.56494,0.05530
708.50533,0.05705
706.44572,0.05870
704.38611,0.06011
702.32650,0.06117
700.26690,0.06194
698.20729,0.06265
696.14768,0.06339
694.08807,0.06398
692.02846,0.06434
689.96885,0.06453
687.90924,0.06439
685.84964,0.06392
683.79003,0.06344
681.73042,0.06328
679.67081,0.06342
677.61120,0.06349
675.55159,0.06328
673.49199,0.06295
671.43238,0.06271
669.37277,0.06260
667.31316,0.06249
665.25355,0.06234
663.19394,0.06204
661.13433,0.06162
659.07473,0.06136
657.01512,0.06115
654.95551,0.06075
652.89590,0.06034
650.83629,0.06013
648.77668,0.05998
646.71707,0.05962
644.65747,0.05910
642.59786,0.05877
640.53825,0.05865
638.47864,0.05842
636.41903,0.05829
634.35942,0.05848
632.29981,0.05870
630.24021,0.05890
628.18060,0.05951
626.12099,0.06075
624.06138,0.06226
622.00177,0.06356
619.94216,0.06444
617.88256,0.06491
615.82295,0.06509
613.76334,0.06485
611.70373,0.06417
609.64412,0.06342
607.58451,0.06270
605.52490,0.06196
603.46530,0.06134
601.40569,0.06078
599.34608,0.06020
597.28647,0.05984
595.22686,0.05978
593.16725,0.05951
591.10764,0.05893
589.04804,0.05854
586.98843,0.05843
584.92882,0.05837
582.86921,0.05819
580.80960,0.05788
578.74999,0.05777
576.69039,0.05795
574.63078,0.05815
572.57117,0.05814
570.51156,0.05787
568.45195,0.05763
566.39234,0.05779
564.33273,0.05798
562.27313,0.05793
560.21352,0.05796
558.15391,0.05818
556.09430,0.05840
554.03469,0.05857
551.97508,0.05871
549.91547,0.05877
547.85587,0.05887
545.79626,0.05905
543.73665,0.05912
541.67704,0.05886
539.61743,0.05845
537.55782,0.05833
535.49821,0.05849
533.43861,0.05849
531.37900,0.05824
529.31939,0.05802
527.25978,0.05770
525.20017,0.05726
523.14056,0.05695
521.08096,0.05677
519.02135,0.05649
516.96174,0.05609
514.90213,0.05574
512.84252,0.05546
510.78291,0.05506
508.72330,0.05456
506.66370,0.05427
504.60409,0.05423
502.54448,0.05433
500.48487,0.05429
498.42526,0.05379
496.36565,0.05314
494.30604,0.05278
492.24644,0.05248
490.18683,0.05206
488.12722,0.05184
486.06761,0.05191
484.00800,0.05181
481.94839,0.05127
479.88878,0.05065
477.82918,0.05017
475.76957,0.04969
473.70996,0.04918
471.65035,0.04884
469.59074,0.04853
467.53113,0.04796
465.47153,0.04748
463.41192,0.04733
461.35231,0.04709
459.29270,0.04655
457.23309,0.04606
455.17348,0.04618
453.11387,0.04735
451.05427,0.04941
448.99466,0.05164
446.93505,0.05348
444.87544,0.05449
442.81583,0.05437
440.75622,0.05374
438.69661,0.05348
436.63701,0.05345
434.57740,0.05320
432.51779,0.05250
430.45818,0.05133
428.39857,0.05026
426.33896,0.04971
424.27935,0.04925
422.21975,0.04863
420.16014,0.04821
418.10053,0.04765
416.04092,0.04635
413.98131,0.04504
411.92170,0.04414
409.86210,0.04374
407.80249,0.04342
405.74288,0.04287
403.68327,0.04240
401.62366,0.04202
399.56405,0.04171
