3997.70013,0.05983
3995.64052,0.05930
3993.58092,0.05871
3991.52131,0.05828
3989.46170,0.05840
3987.40209,0.05860
3985.34248,0.05831
3983.28287,0.05829
3981.22327,0.05844
3979.16366,0.05817
3977.10405,0.05821
3975.04444,0.05854
3972.98483,0.05855
3970.92522,0.05819
3968.86561,0.05769
3966.80601,0.05752
3964.74640,0.05802
3962.68679,0.05892
3960.62718,0.05930
3958.56757,0.05877
3956.50796,0.05840
3954.44835,0.05876
3952.38875,0.05904
3950.32914,0.05888
3948.26953,0.05887
3946.20992,0.05940
3944.15031,0.05967
3942.09070,0.05916
3940.03109,0.05873
3937.97149,0.05862
3935.91188,0.05817
3933.85227,0.05773
3931.79266,0.05807
3929.73305,0.05853
3927.67344,0.05837
3925.61384,0.05820
3923.55423,0.05846
3921.49462,0.05836
3919.43501,0.05781
3917.37540,0.05764
3915.31579,0.05767
3913.25618,0.05745
3911.19658,0.05711
3909.13697,0.05674
3907.07736,0.05661
3905.01775,0.05679
3902.95814,0.05728
3900.89853,0.05764
3898.83892,0.05702
3896.77932,0.05629
3894.71971,0.05657
3892.66010,0.05744
3890.60049,0.05796
3888.54088,0.05767
3886.48127,0.05718
3884.42166,0.05719
3882.36206,0.05746
3880.30245,0.05766
3878.24284,0.05765
3876.18323,0.05704
3874.12362,0.05616
3872.06401,0.05606
3870.00441,0.05677
3867.94480,0.05726
3865.88519,0.05706
3863.82558,0.05664
3861.76597,0.05670
3859.70636,0.05687
3857.64675,0.05641
3855.58715,0.05555
3853.52754,0.05560
3851.46793,0.05626
3849.40832,0.05596
3847.34871,0.05528
3845.28910,0.05490
3843.22949,0.05528
3841.16989,0.05595
3839.11028,0.05621
3837.05067,0.05628
3834.99106,0.05639
3832.93145,0.05620
3830.87184,0.05525
3828.81223,0.05409
3826.75263,0.05382
3824.69302,0.05458
3822.63341,0.05541
3820.57380,0.05529
3818.51419,0.05447
3816.45458,0.05418
3814.39498,0.05486
3812.33537,0.05542
3810.27576,0.05494
3808.21615,0.05382
3806.15654,0.05321
3804.09693,0.05304
3802.03732,0.05294
3799.97772,0.05364
3797.91811,0.05439
3795.85850,0.05448
3793.79889,0.05475
3791.73928,0.05516
3789.67967,0.05486
3787.62006,0.05418
3785.56046,0.05377
3783.50085,0.05375
3781.44124,0.05380
3779.38163,0.05370
3777.32202,0.05363
3775.26241,0.05364
3773.20280,0.05377
3771.14320,0.05358
3769.08359,0.05318
3767.02398,0.05346
3764.96437,0.05418
3762.90476,0.05456
3760.84515,0.05409
3758.78555,0.05322
3756.72594,0.05307
3754.66633,0.05320
3752.60672,0.05288
3750.54711,0.05254
3748.48750,0.05268
3746.42789,0.05282
3744.36829,0.05283
3742.30868,0.05294
3740.24907,0.05279
3738.18946,0.05209
3736.12985,0.05131
3734.07024,0.05153
3732.01063,0.05200
3729.95103,0.05190
3727.89142,0.05172
3725.83181,0.05186
3723.77220,0.05232
3721.71259,0.05228
3719.65298,0.05158
3717.59337,0.05100
3715.53377,0.05084
3713.47416,0.05073
3711.41455,0.05059
3709.35494,0.05066
3707.29533,0.05069
3705.23572,0.05053
3703.17612,0.05033
3701.11651,0.05022
3699.05690,0.05056
3696.99729,0.05147
3694.93768,0.05203
3692.87807,0.05179
3690.81846,0.05123
3688.75886,0.05070
3686.69925,0.05045
3684.63964,0.05065
3682.58003,0.05065
3680.52042,0.04991
3678.46081,0.04956
3676.40120,0.05012
3674.34160,0.05064
3672.28199,0.05102
3670.22238,0.05135
3668.16277,0.05129
3666.10316,0.05066
3664.04355,0.05007
3661.98394,0.05032
3659.92434,0.05080
3657.86473,0.05078
3655.80512,0.05075
3653.74551,0.05049
3651.68590,0.05008
3649.62629,0.05056
3647.56669,0.05140
3645.50708,0.05142
3643.44747,0.05115
3641.38786,0.05119
3639.32825,0.05174
3637.26864,0.05244
3635.20903,0.05219
3633.14943,0.05105
3631.08982,0.05059
3629.03021,0.05156
3626.97060,0.05238
3624.91099,0.05187
3622.85138,0.05139
3620.79177,0.05207
3618.73217,0.05322
3616.67256,0.05345
3614.61295,0.05322
3612.55334,0.05320
3610.49373,0.05312
3608.43412,0.05314
3606.37451,0.05363
3604.31491,0.05389
3602.25530,0.05403
3600.19569,0.05473
3598.13608,0.05539
3596.07647,0.05560
3594.01686,0.05585
3591.95726,0.05608
3589.89765,0.05608
3587.83804,0.05619
3585.77843,0.05639
3583.71882,0.05595
3581.65921,0.05532
3579.59960,0.05537
3577.54000,0.05591
3575.48039,0.05628
3573.42078,0.05620
3571.36117,0.05617
3569.30156,0.05667
3567.24195,0.05754
3565.18234,0.05792
3563.12274,0.05753
3561.06313,0.05742
3559.00352,0.05812
3556.94391,0.05886
3554.88430,0.05922
3552.82469,0.05949
3550.76508,0.05955
3548.70548,0.05977
3546.64587,0.06071
3544.58626,0.06147
3542.52665,0.06136
3540.46704,0.06114
3538.40743,0.06120
3536.34783,0.06162
3534.28822,0.06239
3532.22861,0.06288
3530.16900,0.06304
3528.10939,0.06342
3526.04978,0.06394
3523.99017,0.06419
3521.93057,0.06398
3519.87096,0.06395
3517.81135,0.06416
3515.75174,0.06417
3513.69213,0.06437
3511.63252,0.06490
3509.57291,0.06528
3507.51331,0.06527
3505.45370,0.06518
3503.39409,0.06564
3501.33448,0.06644
3499.27487,0.06671
3497.21526,0.06644
3495.15565,0.06631
3493.09605,0.06677
3491.03644,0.06752
3488.97683,0.06826
3486.91722,0.06881
3484.85761,0.06863
3482.79800,0.06817
3480.73840,0.06815
3478.67879,0.06830
3476.61918,0.06846
3474.55957,0.06848
3472.49996,0.06838
3470.44035,0.06867
3468.38074,0.06891
3466.32114,0.06850
3464.26153,0.06825
3462.20192,0.06885
3460.14231,0.06958
3458.08270,0.06972
3456.02309,0.06962
3453.96348,0.06966
3451.90388,0.06986
3449.84427,0.06991
3447.78466,0.06995
3445.72505,0.07039
3443.66544,0.07067
3441.60583,0.07074
3439.54622,0.07094
3437.48662,0.07083
3435.42701,0.07036
3433.36740,0.07048
3431.30779,0.07125
3429.24818,0.07155
3427.18857,0.07133
3425.12897,0.07110
3423.06936,0.07120
3421.00975,0.07171
3418.95014,0.07244
3416.89053,0.07336
3414.83092,0.07395
3412.77131,0.07390
3410.71171,0.07355
3408.65210,0.07306
3406.59249,0.07279
3404.53288,0.07311
3402.47327,0.07392
3400.41366,0.07489
3398.35405,0.07553
3396.29445,0.07580
3394.23484,0.07610
3392.17523,0.07635
3390.11562,0.07654
3388.05601,0.07671
3385.99640,0.07681
3383.93679,0.07695
3381.87719,0.07714
3379.81758,0.07747
3377.75797,0.07815
3375.69836,0.07851
3373.63875,0.07827
3371.57914,0.07812
3369.51954,0.07820
3367.45993,0.07870
3365.40032,0.07982
3363.34071,0.08075
3361.28110,0.08101
3359.22149,0.08098
3357.16188,0.08125
3355.10228,0.08188
3353.04267,0.08274
3350.98306,0.08367
3348.92345,0.08432
3346.86384,0.08495
3344.80423,0.08605
3342.74462,0.08745
3340.68502,0.08855
3338.62541,0.08935
3336.56580,0.09037
3334.50619,0.09181
3332.44658,0.09364
3330.38697,0.09578
3328.32736,0.09788
3326.26776,0.09976
3324.20815,0.10192
3322.14854,0.10416
3320.08893,0.10595
3318.02932,0.10798
3315.96971,0.11066
3313.91011,0.11366
3311.85050,0.11679
3309.79089,0.11980
3307.73128,0.12261
3305.67167,0.12549
3303.61206,0.12846
3301.55245,0.13121
3299.49285,0.13404
3297.43324,0.13736
3295.37363,0.14083
3293.31402,0.14377
3291.25441,0.14630
3289.19480,0.14909
3287.13519,0.15203
3285.07559,0.15446
3283.01598,0.15618
3280.95637,0.15743
3278.89676,0.15853
3276.83715,0.15940
3274.77754,0.15960
3272.71793,0.15933
3270.65833,0.15909
3268.59872,0.15868
3266.53911,0.15787
3264.47950,0.15687
3262.41989,0.15578
3260.36028,0.15415
3258.30068,0.15218
3256.24107,0.15031
3254.18146,0.14815
3252.12185,0.14579
3250.06224,0.14403
3248.00263,0.14275
3245.94302,0.14125
3243.88342,0.13948
3241.82381,0.13774
3239.76420,0.13608
3237.70459,0.13463
3235.64498,0.13326
3233.58537,0.13174
3231.52576,0.13031
3229.46616,0.12900
3227.40655,0.12750
3225.34694,0.12628
3223.28733,0.12593
3221.22772,0.12586
3219.16811,0.12504
3217.10850,0.12368
3215.04890,0.12235
3212.98929,0.12095
3210.92968,0.11952
3208.87007,0.11842
3206.81046,0.11747
3204.75085,0.11634
3202.69125,0.11533
3200.63164,0.11460
3198.57203,0.11378
3196.51242,0.11272
3194.45281,0.11186
3192.39320,0.11129
3190.33359,0.11073
3188.27399,0.10984
3186.21438,0.10870
3184.15477,0.10784
3182.09516,0.10734
3180.03555,0.10652
3177.97594,0.10514
3175.91633,0.10395
3173.85673,0.10342
3171.79712,0.10285
3169.73751,0.10190
3167.67790,0.10115
3165.61829,0.10078
3163.55868,0.10017
3161.49907,0.09896
3159.43947,0.09765
3157.37986,0.09680
3155.32025,0.09634
3153.26064,0.09602
3151.20103,0.09563
3149.14142,0.09515
3147.08182,0.09450
3145.02221,0.09374
3142.96260,0.09331
3140.90299,0.09317
3138.84338,0.09280
3136.78377,0.09218
3134.72416,0.09173
3132.66456,0.09151
3130.60495,0.09116
3128.54534,0.09051
3126.48573,0.08988
3124.42612,0.08967
3122.36651,0.08977
3120.30690,0.08971
3118.24730,0.08927
3116.18769,0.08869
3114.12808,0.08841
3112.06847,0.08859
3110.00886,0.08895
3107.94925,0.08920
3105.88965,0.08919
3103.83004,0.08910
3101.77043,0.08913
3099.71082,0.08909
3097.65121,0.08924
3095.59160,0.08986
3093.53199,0.09031
3091.47239,0.09028
3089.41278,0.09049
3087.35317,0.09101
3085.29356,0.09126
3083.23395,0.09109
3081.17434,0.09081
3079.11473,0.09071
3077.05513,0.09095
3074.99552,0.09129
3072.93591,0.09119
3070.87630,0.09097
3068.81669,0.09113
3066.75708,0.09124
3064.69747,0.09106
3062.63787,0.09082
3060.57826,0.09074
3058.51865,0.09067
3056.45904,0.09027
3054.39943,0.08970
3052.33982,0.08941
3050.28022,0.08933
3048.22061,0.08899
3046.16100,0.08830
3044.10139,0.08749
3042.04178,0.08684
3039.98217,0.08636
3037.92256,0.08576
3035.86296,0.08522
3033.80335,0.08495
3031.74374,0.08453
3029.68413,0.08396
3027.62452,0.08345
3025.56491,0.08304
3023.50530,0.08286
3021.44570,0.08263
3019.38609,0.08229
3017.32648,0.08188
3015.26687,0.08149
3013.20726,0.08130
3011.14765,0.08089
3009.08804,0.08030
3007.02844,0.08001
3004.96883,0.07985
3002.90922,0.07964
3000.84961,0.07964
2998.79000,0.07999
2996.73039,0.08025
2994.67079,0.08008
2992.61118,0.08005
2990.55157,0.08049
2988.49196,0.08085
2986.43235,0.08106
2984.37274,0.08139
2982.31313,0.08170
2980.25353,0.08185
2978.19392,0.08209
2976.13431,0.08268
2974.07470,0.08332
2972.01509,0.08353
2969.95548,0.08350
2967.89587,0.08373
2965.83627,0.08425
2963.77666,0.08474
2961.71705,0.08485
2959.65744,0.08452
2957.59783,0.08409
2955.53822,0.08378
2953.47861,0.08348
2951.41901,0.08318
2949.35940,0.08296
2947.29979,0.08307
2945.24018,0.08352
2943.18057,0.08414
2941.12096,0.08494
2939.06136,0.08579
2937.00175,0.08678
2934.94214,0.08799
2932.88253,0.08925
2930.82292,0.09055
2928.76331,0.09164
2926.70370,0.09227
2924.64410,0.09242
2922.58449,0.09197
2920.52488,0.09107
2918.46527,0.08996
2916.40566,0.08862
2914.34605,0.08741
2912.28644,0.08680
2910.22684,0.08624
2908.16723,0.08543
2906.10762,0.08480
2904.04801,0.08425
2901.98840,0.08350
2899.92879,0.08290
2897.86918,0.08273
2895.80958,0.08270
2893.74997,0.08228
2891.69036,0.08169
2889.63075,0.08138
2887.57114,0.08099
2885.51153,0.08048
2883.45193,0.08022
2881.39232,0.08010
2879.33271,0.07991
2877.27310,0.07999
2875.21349,0.08051
2873.15388,0.08093
2871.09427,0.08086
2869.03467,0.08054
2866.97506,0.08035
2864.91545,0.08033
2862.85584,0.08021
2860.79623,0.08016
2858.73662,0.08046
2856.67701,0.08084
2854.61741,0.08099
2852.55780,0.08092
2850.49819,0.08064
2848.43858,0.08002
2846.37897,0.07894
2844.31936,0.07766
2842.25975,0.07673
2840.20015,0.07626
2838.14054,0.07573
2836.08093,0.07511
2834.02132,0.07484
2831.96171,0.07479
2829.90210,0.07448
2827.84250,0.07396
2825.78289,0.07349
2823.72328,0.07310
2821.66367,0.07275
2819.60406,0.07254
2817.54445,0.07255
2815.48484,0.07254
2813.42524,0.07249
2811.36563,0.07233
2809.30602,0.07197
2807.24641,0.07162
2805.18680,0.07143
2803.12719,0.07141
2801.06758,0.07148
2799.00798,0.07147
2796.94837,0.07130
2794.88876,0.07103
2792.82915,0.07088
2790.76954,0.07095
2788.70993,0.07089
2786.65032,0.07071
2784.59072,0.07071
2782.53111,0.07062
2780.47150,0.07036
2778.41189,0.07024
2776.35228,0.07023
2774.29267,0.07000
2772.23307,0.06966
2770.17346,0.06946
2768.11385,0.06935
2766.05424,0.06911
2763.99463,0.06887
2761.93502,0.06881
2759.87541,0.06867
2757.81581,0.06852
2755.75620,0.06852
2753.69659,0.06839
2751.63698,0.06807
2749.57737,0.06781
2747.51776,0.06767
2745.45815,0.06763
2743.39855,0.06766
2741.33894,0.06757
2739.27933,0.06728
2737.21972,0.06685
2735.16011,0.06656
2733.10050,0.06650
2731.04089,0.06650
2728.98129,0.06645
2726.92168,0.06619
2724.86207,0.06588
2722.80246,0.06584
2720.74285,0.06578
2718.68324,0.06550
2716.62364,0.06536
2714.56403,0.06544
2712.50442,0.06556
2710.44481,0.06549
2708.38520,0.06517
2706.32559,0.06494
2704.26598,0.06487
2702.20638,0.06470
2700.14677,0.06447
2698.08716,0.06447
2696.02755,0.06466
2693.96794,0.06457
2691.90833,0.06412
2689.84872,0.06374
2687.78912,0.06361
2685.72951,0.06361
2683.66990,0.06359
2681.61029,0.06347
2679.55068,0.06329
2677.49107,0.06316
2675.43146,0.06315
2673.37186,0.06310
2671.31225,0.06300
2669.25264,0.06305
2667.19303,0.06308
2665.13342,0.06286
2663.07381,0.06273
2661.01421,0.06297
2658.95460,0.06317
2656.89499,0.06285
2654.83538,0.06237
2652.77577,0.06218
2650.71616,0.06209
2648.65655,0.06206
2646.59695,0.06205
2644.53734,0.06190
2642.47773,0.06157
2640.41812,0.06105
2638.35851,0.06066
2636.29890,0.06062
2634.23929,0.06077
2632.17969,0.06089
2630.12008,0.06084
2628.06047,0.06074
2626.00086,0.06067
2623.94125,0.06059
2621.88164,0.06045
2619.82203,0.06007
2617.76243,0.05954
2615.70282,0.05925
2613.64321,0.05927
2611.58360,0.05930
2609.52399,0.05924
2607.46438,0.05927
2605.40478,0.05929
2603.34517,0.05912
2601.28556,0.05881
2599.22595,0.05836
2597.16634,0.05794
2595.10673,0.05781
2593.04712,0.05793
2590.98752,0.05821
2588.92791,0.05848
2586.86830,0.05858
2584.80869,0.05847
2582.74908,0.05798
2580.68947,0.05715
2578.62986,0.05660
2576.57026,0.05677
2574.51065,0.05716
2572.45104,0.05724
2570.39143,0.05694
2568.33182,0.05638
2566.27221,0.05613
2564.21260,0.05638
2562.15300,0.05642
2560.09339,0.05616
2558.03378,0.05589
2555.97417,0.05557
2553.91456,0.05536
2551.85495,0.05538
2549.79535,0.05566
2547.73574,0.05596
2545.67613,0.05578
2543.61652,0.05532
2541.55691,0.05517
2539.49730,0.05505
2537.43769,0.05457
2535.37809,0.05427
2533.31848,0.05424
2531.25887,0.05404
2529.19926,0.05377
2527.13965,0.05363
2525.08004,0.05360
2523.02043,0.05371
2520.96083,0.05388
2518.90122,0.05379
2516.84161,0.05358
2514.78200,0.05384
2512.72239,0.05413
2510.66278,0.05381
2508.60317,0.05329
2506.54357,0.05305
2504.48396,0.05306
2502.42435,0.05310
2500.36474,0.05327
2498.30513,0.05357
2496.24552,0.05363
2494.18592,0.05344
2492.12631,0.05335
2490.06670,0.05315
2488.00709,0.05278
2485.94748,0.05266
2483.88787,0.05249
2481.82826,0.05206
2479.76866,0.05191
2477.70905,0.05226
2475.64944,0.05271
2473.58983,0.05274
2471.53022,0.05226
2469.47061,0.05174
2467.41100,0.05136
2465.35140,0.05124
2463.29179,0.05164
2461.23218,0.05196
2459.17257,0.05165
2457.11296,0.05134
2455.05335,0.05177
2452.99374,0.05250
2450.93414,0.05258
2448.87453,0.05211
2446.81492,0.05177
2444.75531,0.05152
2442.69570,0.05120
2440.63609,0.05102
2438.57649,0.05091
2436.51688,0.05093
2434.45727,0.05101
2432.39766,0.05085
2430.33805,0.05076
2428.27844,0.05092
2426.21883,0.05072
2424.15923,0.05017
2422.09962,0.04985
2420.04001,0.04987
2417.98040,0.05009
2415.92079,0.05039
2413.86118,0.05066
2411.80157,0.05062
2409.74197,0.05009
2407.68236,0.04961
2405.62275,0.04974
2403.56314,0.05000
2401.50353,0.04997
2399.44392,0.05003
2397.38431,0.05030
2395.32471,0.05038
2393.26510,0.05035
2391.20549,0.05054
2389.14588,0.05064
2387.08627,0.05045
2385.02666,0.05010
2382.96706,0.04947
2380.90745,0.04896
2378.84784,0.04922
2376.78823,0.04982
2374.72862,0.05005
2372.66901,0.05000
2370.60940,0.04972
2368.54980,0.04897
2366.49019,0.04821
2364.43058,0.04797
2362.37097,0.04844
2360.31136,0.04935
2358.25175,0.04967
2356.19214,0.04968
2354.13254,0.04998
2352.07293,0.05013
2350.01332,0.04990
2347.95371,0.04956
2345.89410,0.04936
2343.83449,0.04905
2341.77488,0.04883
2339.71528,0.04909
2337.65567,0.04940
2335.59606,0.04957
2333.53645,0.04972
2331.47684,0.04957
2329.41723,0.04920
2327.35763,0.04950
2325.29802,0.05022
2323.23841,0.05000
2321.17880,0.04910
2319.11919,0.04888
2317.05958,0.04890
2314.99997,0.04854
2312.94037,0.04833
2310.88076,0.04819
2308.82115,0.04810
2306.76154,0.04838
2304.70193,0.04852
2302.64232,0.04826
2300.58271,0.04778
2298.52311,0.04735
2296.46350,0.04757
2294.40389,0.04805
2292.34428,0.04801
2290.28467,0.04761
2288.22506,0.04737
2286.16545,0.04724
2284.10585,0.04710
2282.04624,0.04709
2279.98663,0.04694
2277.92702,0.04631
2275.86741,0.04554
2273.80780,0.04497
2271.74820,0.04441
2269.68859,0.04395
2267.62898,0.04405
2265.56937,0.04438
2263.50976,0.04421
2261.45015,0.04351
2259.39054,0.04285
2257.33094,0.04253
2255.27133,0.04228
2253.21172,0.04194
2251.15211,0.04178
2249.09250,0.04178
2247.03289,0.04199
2244.97328,0.04222
2242.91368,0.04210
2240.85407,0.04220
2238.79446,0.04244
2236.73485,0.04254
2234.67524,0.04241
2232.61563,0.04198
2230.55602,0.04200
2228.49642,0.04198
2226.43681,0.04124
2224.37720,0.04100
2222.31759,0.04201
2220.25798,0.04255
2218.19837,0.04147
2216.13877,0.04059
2214.07916,0.04070
2212.01955,0.04086
2209.95994,0.04063
2207.90033,0.04010
2205.84072,0.03994
2203.78111,0.04030
2201.72151,0.04051
2199.66190,0.03986
2197.60229,0.03864
2195.54268,0.03826
2193.48307,0.03927
2191.42346,0.04034
2189.36385,0.04008
2187.30425,0.03912
2185.24464,0.03870
2183.18503,0.03859
2181.12542,0.03819
2179.06581,0.03818
2177.00620,0.03880
2174.94659,0.03882
2172.88699,0.03773
2170.82738,0.03667
2168.76777,0.03668
2166.70816,0.03720
2164.64855,0.03762
2162.58894,0.03790
2160.52934,0.03683
2158.46973,0.03467
2156.41012,0.03327
2154.35051,0.03291
2152.29090,0.03325
2150.23129,0.03371
2148.17168,0.03427
2146.11208,0.03498
2144.05247,0.03535
2141.99286,0.03556
2139.93325,0.03567
2137.87364,0.03526
2135.81403,0.03471
2133.75442,0.03513
2131.69482,0.03645
2129.63521,0.03755
2127.57560,0.03788
2125.51599,0.03778
2123.45638,0.03791
2121.39677,0.03820
2119.33716,0.03798
2117.27756,0.03751
2115.21795,0.03776
2113.15834,0.03849
2111.09873,0.03869
2109.03912,0.03834
2106.97951,0.03826
2104.91991,0.03837
2102.86030,0.03805
2100.80069,0.03770
2098.74108,0.03747
2096.68147,0.03706
2094.62186,0.03698
2092.56225,0.03727
2090.50265,0.03751
2088.44304,0.03760
2086.38343,0.03749
2084.32382,0.03730
2082.26421,0.03728
2080.20460,0.03725
2078.14499,0.03706
2076.08539,0.03725
2074.02578,0.03751
2071.96617,0.03667
2069.90656,0.03551
2067.84695,0.03534
2065.78734,0.03560
2063.72773,0.03563
2061.66813,0.03539
2059.60852,0.03491
2057.54891,0.03445
2055.48930,0.03457
2053.42969,0.03503
2051.37008,0.03495
2049.31048,0.03414
2047.25087,0.03317
2045.19126,0.03279
2043.13165,0.03307
2041.07204,0.03339
2039.01243,0.03315
2036.95282,0.03247
2034.89322,0.03210
2032.83361,0.03193
2030.77400,0.03074
2028.71439,0.02908
2026.65478,0.02853
2024.59517,0.02866
2022.53556,0.02894
2020.47596,0.02938
2018.41635,0.02969
2016.35674,0.03013
2014.29713,0.03095
2012.23752,0.03130
2010.17791,0.03052
2008.11830,0.02974
2006.05870,0.03002
2003.99909,0.03055
2001.93948,0.03042
1999.87987,0.03018
1997.82026,0.03047
1995.76065,0.03102
1993.70105,0.03134
1991.64144,0.03077
1989.58183,0.03001
1987.52222,0.03013
1985.46261,0.03061
1983.40300,0.03134
1981.34339,0.03178
1979.28379,0.03097
1977.22418,0.02970
1975.16457,0.02898
1973.10496,0.02851
1971.04535,0.02787
1968.98574,0.02777
1966.92613,0.02843
1964.86653,0.02915
1962.80692,0.02959
1960.74731,0.02961
1958.68770,0.02949
1956.62809,0.02919
1954.56848,0.02869
1952.50887,0.02870
1950.44927,0.02905
1948.38966,0.02922
1946.33005,0.02916
1944.27044,0.02898
1942.21083,0.02905
1940.15122,0.02940
1938.09162,0.02973
1936.03201,0.02996
1933.97240,0.03020
1931.91279,0.03053
1929.85318,0.03058
1927.79357,0.03018
1925.73396,0.02975
1923.67436,0.02946
1921.61475,0.02912
1919.55514,0.02896
1917.49553,0.02930
1915.43592,0.02954
1913.37631,0.02930
1911.31670,0.02922
1909.25710,0.02958
1907.19749,0.02994
1905.13788,0.02998
1903.07827,0.02960
1901.01866,0.02903
1898.95905,0.02883
1896.89944,0.02914
1894.83984,0.02943
1892.78023,0.02910
1890.72062,0.02830
1888.66101,0.02780
1886.60140,0.02787
1884.54179,0.02807
1882.48219,0.02809
1880.42258,0.02791
1878.36297,0.02780
1876.30336,0.02793
1874.24375,0.02803
1872.18414,0.02790
1870.12453,0.02776
1868.06493,0.02766
1866.00532,0.02741
1863.94571,0.02711
1861.88610,0.02710
1859.82649,0.02731
1857.76688,0.02734
1855.70727,0.02705
1853.64767,0.02661
1851.58806,0.02628
1849.52845,0.02617
1847.46884,0.02618
1845.40923,0.02625
1843.34962,0.02607
1841.29002,0.02559
1839.23041,0.02529
1837.17080,0.02535
1835.11119,0.02536
1833.05158,0.02518
1830.99197,0.02507
1828.93236,0.02495
1826.87276,0.02483
1824.81315,0.02486
1822.75354,0.02480
1820.69393,0.02458
1818.63432,0.02448
1816.57471,0.02444
1814.51510,0.02425
1812.45550,0.02388
1810.39589,0.02360
1808.33628,0.02357
1806.27667,0.02364
1804.21706,0.02364
1802.15745,0.02351
1800.09784,0.02335
1798.03824,0.02325
1795.97863,0.02308
1793.91902,0.02276
1791.85941,0.02251
1789.79980,0.02249
1787.74019,0.02254
1785.68059,0.02239
1783.62098,0.02195
1781.56137,0.02154
1779.50176,0.02129
1777.44215,0.02108
1775.38254,0.02088
1773.32293,0.02084
1771.26333,0.02084
1769.20372,0.02071
1767.14411,0.02039
1765.08450,0.01995
1763.02489,0.01959
1760.96528,0.01935
1758.90567,0.01918
1756.84607,0.01920
1754.78646,0.01932
1752.72685,0.01923
1750.66724,0.01895
1748.60763,0.01866
1746.54802,0.01849
1744.48841,0.01829
1742.42881,0.01803
1740.36920,0.01796
1738.30959,0.01792
1736.24998,0.01757
1734.19037,0.01718
1732.13076,0.01718
1730.07116,0.01717
1728.01155,0.01703
1725.95194,0.01688
1723.89233,0.01663
1721.83272,0.01644
1719.77311,0.01658
1717.71350,0.01710
1715.65390,0.01782
1713.59429,0.01863
1711.53468,0.01987
1709.47507,0.02193
1707.41546,0.02524
1705.35585,0.03037
1703.29624,0.03604
1701.23664,0.04177
1699.17703,0.04672
1697.11742,0.04818
1695.05781,0.04765
1692.99820,0.04705
1690.93859,0.04678
1688.87898,0.04694
1686.81938,0.04739
1684.75977,0.04842
1682.70016,0.05041
1680.64055,0.05244
1678.58094,0.05422
1676.52133,0.05607
1674.46173,0.05835
1672.40212,0.06059
1670.34251,0.06300
1668.28290,0.06597
1666.22329,0.06855
1664.16368,0.07096
1662.10407,0.07407
1660.04447,0.07727
1657.98486,0.07993
1655.92525,0.08230
1653.86564,0.08589
1651.80603,0.09051
1649.74642,0.09293
1647.68681,0.09540
1645.62721,0.09943
1643.56760,0.10320
1641.50799,0.10654
1639.44838,0.10997
1637.38877,0.11375
1635.32916,0.11876
1633.26955,0.12348
1631.20995,0.12708
1629.15034,0.13078
1627.09073,0.13454
1625.03112,0.13779
1622.97151,0.14070
1620.91190,0.14258
1618.85230,0.14307
1616.79269,0.14265
1614.73308,0.14117
1612.67347,0.13863
1610.61386,0.13525
1608.55425,0.13125
1606.49464,0.12673
1604.43504,0.12171
1602.37543,0.11647
1600.31582,0.11145
1598.25621,0.10701
1596.19660,0.10299
1594.13699,0.09912
1592.07738,0.09537
1590.01778,0.09170
1587.95817,0.08828
1585.89856,0.08539
1583.83895,0.08304
1581.77934,0.08110
1579.71973,0.07957
1577.66012,0.07837
1575.60052,0.07767
1573.54091,0.07756
1571.48130,0.07773
1569.42169,0.07837
1567.36208,0.07945
1565.30247,0.08087
1563.24287,0.08237
1561.18326,0.08379
1559.12365,0.08640
1557.06404,0.08953
1555.00443,0.09139
1552.94482,0.09298
1550.88521,0.09468
1548.82561,0.09662
1546.76600,0.09867
1544.70639,0.10076
1542.64678,0.10301
1540.58717,0.10608
1538.52756,0.10966
1536.46795,0.11203
1534.40835,0.11436
1532.34874,0.11728
1530.28913,0.11980
1528.22952,0.12225
1526.16991,0.12508
1524.11030,0.12785
1522.05069,0.13106
1519.99109,0.13484
1517.93148,0.13841
1515.87187,0.14201
1513.81226,0.14481
1511.75265,0.14622
1509.69304,0.14654
1507.63344,0.14619
1505.57383,0.14541
1503.51422,0.14395
1501.45461,0.14201
1499.39500,0.13975
1497.33539,0.13704
1495.27578,0.13386
1493.21618,0.13072
1491.15657,0.12725
1489.09696,0.12307
1487.03735,0.11894
1484.97774,0.11534
1482.91813,0.11202
1480.85852,0.10872
1478.79892,0.10557
1476.73931,0.10276
1474.67970,0.10043
1472.62009,0.09840
1470.56048,0.09648
1468.50087,0.09486
1466.44126,0.09342
1464.38166,0.09208
1462.32205,0.09101
1460.26244,0.09032
1458.20283,0.09054
1456.14322,0.09222
1454.08361,0.09416
1452.02401,0.09620
1449.96440,0.09857
1447.90479,0.10081
1445.84518,0.10248
1443.78557,0.10345
1441.72596,0.10396
1439.66635,0.10407
1437.60675,0.10356
1435.54714,0.10211
1433.48753,0.10003
1431.42792,0.09753
1429.36831,0.09486
1427.30870,0.09263
1425.24909,0.09088
1423.18949,0.08941
1421.12988,0.08819
1419.07027,0.08744
1417.01066,0.08724
1414.95105,0.08725
1412.89144,0.08739
1410.83183,0.08770
1408.77223,0.08802
1406.71262,0.08818
1404.65301,0.08814
1402.59340,0.08797
1400.53379,0.08758
1398.47418,0.08692
1396.41458,0.08626
1394.35497,0.08577
1392.29536,0.08532
1390.23575,0.08487
1388.17614,0.08440
1386.11653,0.08384
1384.05692,0.08325
1381.99732,0.08274
1379.93771,0.08235
1377.87810,0.08201
1375.81849,0.08167
1373.75888,0.08147
1371.69927,0.08145
1369.63966,0.08147
1367.58006,0.08133
1365.52045,0.08083
1363.46084,0.07990
1361.40123,0.07867
1359.34162,0.07734
1357.28201,0.07613
1355.22240,0.07516
1353.16280,0.07435
1351.10319,0.07361
1349.04358,0.07313
1346.98397,0.07287
1344.92436,0.07261
1342.86475,0.07243
1340.80515,0.07238
1338.74554,0.07239
1336.68593,0.07239
1334.62632,0.07229
1332.56671,0.07203
1330.50710,0.07161
1328.44749,0.07107
1326.38789,0.07047
1324.32828,0.06985
1322.26867,0.06928
1320.20906,0.06882
1318.14945,0.06843
1316.08984,0.06799
1314.03023,0.06755
1311.97063,0.06722
1309.91102,0.06692
1307.85141,0.06657
1305.79180,0.06622
1303.73219,0.06594
1301.67258,0.06564
1299.61297,0.06521
1297.55337,0.06471
1295.49376,0.06429
1293.43415,0.06395
1291.37454,0.06359
1289.31493,0.06319
1287.25532,0.06288
1285.19572,0.06282
1283.13611,0.06289
1281.07650,0.06301
1279.01689,0.06329
1276.95728,0.06382
1274.89767,0.06475
1272.83806,0.06611
1270.77846,0.06763
1268.71885,0.06918
1266.65924,0.07076
1264.59963,0.07214
1262.54002,0.07311
1260.48041,0.07370
1258.42080,0.07391
1256.36120,0.07385
1254.30159,0.07376
1252.24198,0.07374
1250.18237,0.07385
1248.12276,0.07420
1246.06315,0.07472
1244.00354,0.07534
1241.94394,0.07608
1239.88433,0.07699
1237.82472,0.07824
1235.76511,0.07976
1233.70550,0.08131
1231.64589,0.08273
1229.58629,0.08390
1227.52668,0.08455
1225.46707,0.08466
1223.40746,0.08439
1221.34785,0.08387
1219.28824,0.08316
1217.22863,0.08232
1215.16903,0.08141
1213.10942,0.08028
1211.04981,0.07884
1208.99020,0.07721
1206.93059,0.07552
1204.87098,0.07379
1202.81137,0.07204
1200.75177,0.07039
1198.69216,0.06888
1196.63255,0.06740
1194.57294,0.06601
1192.51333,0.06482
1190.45372,0.06378
1188.39411,0.06287
1186.33451,0.06209
1184.27490,0.06141
1182.21529,0.06088
1180.15568,0.06070
1178.09607,0.06091
1176.03646,0.06146
1173.97686,0.06227
1171.91725,0.06317
1169.85764,0.06390
1167.79803,0.06442
1165.73842,0.06484
1163.67881,0.06518
1161.61920,0.06532
1159.55960,0.06515
1157.49999,0.06472
1155.44038,0.06417
1153.38077,0.06343
1151.32116,0.06251
1149.26155,0.06160
1147.20194,0.06063
1145.14234,0.05950
1143.08273,0.05832
1141.02312,0.05730
1138.96351,0.05643
1136.90390,0.05567
1134.84429,0.05505
1132.78468,0.05451
1130.72508,0.05400
1128.66547,0.05355
1126.60586,0.05322
1124.54625,0.05295
1122.48664,0.05263
1120.42703,0.05229
1118.36743,0.05195
1116.30782,0.05164
1114.24821,0.05142
1112.18860,0.05123
1110.12899,0.05111
1108.06938,0.05106
1106.00977,0.05100
1103.95017,0.05089
1101.89056,0.05066
1099.83095,0.05020
1097.77134,0.04966
1095.71173,0.04921
1093.65212,0.04894
1091.59251,0.04887
1089.53291,0.04894
1087.47330,0.04911
1085.41369,0.04945
1083.35408,0.05008
1081.29447,0.05089
1079.23486,0.05178
1077.17525,0.05268
1075.11565,0.05356
1073.05604,0.05432
1070.99643,0.05492
1068.93682,0.05540
1066.87721,0.05584
1064.81760,0.05623
1062.75800,0.05648
1060.69839,0.05653
1058.63878,0.05641
1056.57917,0.05619
1054.51956,0.05583
1052.45995,0.05538
1050.40034,0.05491
1048.34074,0.05445
1046.28113,0.05405
1044.22152,0.05380
1042.16191,0.05353
1040.10230,0.05322
1038.04269,0.05291
1035.98308,0.05253
1033.92348,0.05208
1031.86387,0.05166
1029.80426,0.05111
1027.74465,0.05044
1025.68504,0.04977
1023.62543,0.04921
1021.56582,0.04879
1019.50622,0.04848
1017.44661,0.04833
1015.38700,0.04825
1013.32739,0.04815
1011.26778,0.04810
1009.20817,0.04808
1007.14857,0.04808
1005.08896,0.04822
1003.02935,0.04858
1000.96974,0.04917
998.91013,0.04974
996.85052,0.05007
994.79091,0.05003
992.73131,0.04949
990.67170,0.04860
988.61209,0.04770
986.55248,0.04700
984.49287,0.04662
982.43326,0.04671
980.37365,0.04711
978.31405,0.04755
976.25444,0.04789
974.19483,0.04800
972.13522,0.04774
970.07561,0.04716
968.01600,0.04641
965.95639,0.04549
963.89679,0.04458
961.83718,0.04387
959.77757,0.04327
957.71796,0.04275
955.65835,0.04233
953.59874,0.04197
951.53914,0.04162
949.47953,0.04117
947.41992,0.04066
945.36031,0.04026
943.30070,0.03995
941.24109,0.03960
939.18148,0.03935
937.12188,0.03925
935.06227,0.03917
933.00266,0.03907
930.94305,0.03895
928.88344,0.03885
926.82383,0.03879
924.76422,0.03863
922.70462,0.03820
920.64501,0.03763
918.58540,0.03714
916.52579,0.03675
914.46618,0.03639
912.40657,0.03608
910.34696,0.03580
908.28736,0.03549
906.22775,0.03521
904.16814,0.03501
902.10853,0.03485
900.04892,0.03461
897.98931,0.03437
895.92971,0.03429
893.87010,0.03418
891.81049,0.03389
889.75088,0.03355
887.69127,0.03339
885.63166,0.03335
883.57205,0.03322
881.51245,0.03298
879.45284,0.03286
877.39323,0.03278
875.33362,0.03257
873.27401,0.03233
871.21440,0.03217
869.15479,0.03194
867.09519,0.03160
865.03558,0.03139
862.97597,0.03147
860.91636,0.03151
858.85675,0.03136
856.79714,0.03127
854.73753,0.03145
852.67793,0.03179
850.61832,0.03198
848.55871,0.03184
846.49910,0.03150
844.43949,0.03115
842.37988,0.03084
840.32028,0.03069
838.26067,0.03080
836.20106,0.03106
834.14145,0.03125
832.08184,0.03145
830.02223,0.03173
827.96262,0.03187
825.90302,0.03174
823.84341,0.03145
821.78380,0.03115
819.72419,0.03091
817.66458,0.03073
815.60497,0.03064
813.54536,0.03058
811.48576,0.03055
809.42615,0.03048
807.36654,0.03016
805.30693,0.02984
803.24732,0.02974
801.18771,0.02955
799.12810,0.02924
797.06850,0.02908
795.00889,0.02911
792.94928,0.02922
790.88967,0.02933
788.83006,0.02946
786.77045,0.02959
784.71085,0.02968
782.65124,0.02975
780.59163,0.02976
778.53202,0.02976
776.47241,0.02984
774.41280,0.03009
772.35319,0.03057
770.29359,0.03103
768.23398,0.03126
766.17437,0.03135
764.11476,0.03144
762.05515,0.03157
759.99554,0.03173
757.93593,0.03182
755.87633,0.03181
753.81672,0.03188
751.75711,0.03214
749.69750,0.03248
747.63789,0.03276
745.57828,0.03305
743.51867,0.03358
741.45907,0.03422
739.39946,0.03474
737.33985,0.03532
735.28024,0.03607
733.22063,0.03686
731.16102,0.03759
729.10142,0.03817
727.04181,0.03871
724.98220,0.03936
722.92259,0.03997
720.86298,0.04053
718.80337,0.04115
716.74376,0.04167
714.68416,0.04200
712.62455,0.04233
710.56494,0.04274
708.50533,0.04315
706.44572,0.04358
704.38611,0.04403
702.32650,0.04447
700.26690,0.04499
698.20729,0.04543
696.14768,0.04567
694.08807,0.04589
692.02846,0.04625
689.96885,0.04658
687.90924,0.04666
685.84964,0.04648
683.79003,0.04636
681.73042,0.04645
679.67081,0.04652
677.61120,0.04650
675.55159,0.04648
673.49199,0.04640
671.43238,0.04624
669.37277,0.04601
667.31316,0.04585
665.25355,0.04599
663.19394,0.04624
661.13433,0.04637
659.07473,0.04641
657.01512,0.04649
654.95551,0.04667
652.89590,0.04694
650.83629,0.04728
648.77668,0.04757
646.71707,0.04775
644.65747,0.04787
642.59786,0.04805
640.53825,0.04827
638.47864,0.04846
636.41903,0.04866
634.35942,0.04884
632.29981,0.04896
630.24021,0.04895
628.18060,0.04889
626.12099,0.04882
624.06138,0.04872
622.00177,0.04865
619.94216,0.04859
617.88256,0.04842
615.82295,0.04822
613.76334,0.04809
611.70373,0.04814
609.64412,0.04829
607.58451,0.04811
605.52490,0.04760
603.46530,0.04712
601.40569,0.04676
599.34608,0.04643
597.28647,0.04599
595.22686,0.04540
593.16725,0.04473
591.10764,0.04415
589.04804,0.04375
586.98843,0.04348
584.92882,0.04320
582.86921,0.04287
580.80960,0.04260
578.74999,0.04238
576.69039,0.04210
574.63078,0.04182
572.57117,0.04166
570.51156,0.04168
568.45195,0.04182
566.39234,0.04205
564.33273,0.04258
562.27313,0.04350
560.21352,0.04456
558.15391,0.04552
556.09430,0.04644
554.03469,0.04732
551.97508,0.04797
549.91547,0.04833
547.85587,0.04848
545.79626,0.04847
543.73665,0.04817
541.67704,0.04753
539.61743,0.04671
537.55782,0.04595
535.49821,0.04548
533.43861,0.04526
531.37900,0.04496
529.31939,0.04440
527.25978,0.04387
525.20017,0.04358
523.14056,0.04333
521.08096,0.04294
519.02135,0.04247
516.96174,0.04201
514.90213,0.04173
512.84252,0.04153
510.78291,0.04128
508.72330,0.04099
506.66370,0.04072
504.60409,0.04046
502.54448,0.04006
500.48487,0.03955
498.42526,0.03905
496.36565,0.03878
494.30604,0.03880
492.24644,0.03872
490.18683,0.03865
488.12722,0.03865
486.06761,0.03852
484.00800,0.03823
481.94839,0.03780
479.88878,0.03735
477.82918,0.03713
475.76957,0.03697
473.70996,0.03645
471.65035,0.03572
469.59074,0.03518
467.53113,0.03486
465.47153,0.03483
463.41192,0.03505
461.35231,0.03507
459.29270,0.03453
457.23309,0.03379
455.17348,0.03340
453.11387,0.03317
451.05427,0.03280
448.99466,0.03275
446.93505,0.03311
444.87544,0.03302
442.81583,0.03234
440.75622,0.03171
438.69661,0.03163
436.63701,0.03194
434.57740,0.03216
432.51779,0.03225
430.45818,0.03256
428.39857,0.03312
426.33896,0.03380
424.27935,0.03415
422.21975,0.03390
420.16014,0.03364
418.10053,0.03341
416.04092,0.03277
413.98131,0.03218
411.92170,0.03147
409.86210,0.03030
407.80249,0.02939
405.74288,0.02923
403.68327,0.02914
401.62366,0.02879
399.56405,0.02827
