3997.65486	0.01544
3995.59527	0.01578
3993.53569	0.01611
3991.47610	0.01577
3989.41652	0.01493
3987.35693	0.01432
3985.29735	0.01442
3983.23776	0.01481
3981.17817	0.01477
3979.11859	0.01451
3977.05900	0.01430
3974.99942	0.01412
3972.93983	0.01424
3970.88025	0.01456
3968.82066	0.01492
3966.76108	0.01523
3964.70149	0.01515
3962.64191	0.01504
3960.58232	0.01558
3958.52274	0.01608
3956.46315	0.01542
3954.40357	0.01415
3952.34398	0.01354
3950.28440	0.01390
3948.22481	0.01444
3946.16523	0.01426
3944.10564	0.01366
3942.04606	0.01355
3939.98647	0.01388
3937.92689	0.01404
3935.86730	0.01405
3933.80772	0.01411
3931.74813	0.01422
3929.68855	0.01436
3927.62896	0.01440
3925.56937	0.01430
3923.50979	0.01419
3921.45020	0.01401
3919.39062	0.01372
3917.33103	0.01372
3915.27145	0.01416
3913.21186	0.01447
3911.15228	0.01424
3909.09269	0.01390
3907.03311	0.01393
3904.97352	0.01394
3902.91394	0.01358
3900.85435	0.01329
3898.79477	0.01339
3896.73518	0.01372
3894.67560	0.01397
3892.61601	0.01393
3890.55643	0.01378
3888.49684	0.01389
3886.43726	0.01441
3884.37767	0.01479
3882.31809	0.01442
3880.25850	0.01366
3878.19892	0.01341
3876.13933	0.01383
3874.07974	0.01426
3872.02016	0.01415
3869.96057	0.01353
3867.90099	0.01294
3865.84140	0.01290
3863.78182	0.01322
3861.72223	0.01339
3859.66265	0.01324
3857.60306	0.01308
3855.54348	0.01326
3853.48389	0.01391
3851.42431	0.01447
3849.36472	0.01430
3847.30514	0.01382
3845.24555	0.01346
3843.18597	0.01315
3841.12638	0.01307
3839.06680	0.01326
3837.00721	0.01297
3834.94763	0.01255
3832.88804	0.01279
3830.82846	0.01312
3828.76887	0.01293
3826.70929	0.01277
3824.64970	0.01291
3822.59012	0.01300
3820.53053	0.01303
3818.47094	0.01304
3816.41136	0.01294
3814.35177	0.01298
3812.29219	0.01295
3810.23260	0.01240
3808.17302	0.01175
3806.11343	0.01183
3804.05385	0.01248
3801.99426	0.01304
3799.93468	0.01343
3797.87509	0.01364
3795.81551	0.01384
3793.75592	0.01400
3791.69634	0.01365
3789.63675	0.01291
3787.57717	0.01267
3785.51758	0.01325
3783.45800	0.01384
3781.39841	0.01385
3779.33883	0.01339
3777.27924	0.01271
3775.21966	0.01241
3773.16007	0.01278
3771.10049	0.01319
3769.04090	0.01309
3766.98132	0.01279
3764.92173	0.01284
3762.86214	0.01316
3760.80256	0.01309
3758.74297	0.01261
3756.68339	0.01235
3754.62380	0.01242
3752.56422	0.01248
3750.50463	0.01258
3748.44505	0.01307
3746.38546	0.01366
3744.32588	0.01371
3742.26629	0.01328
3740.20671	0.01329
3738.14712	0.01373
3736.08754	0.01412
3734.02795	0.01426
3731.96837	0.01393
3729.90878	0.01334
3727.84920	0.01311
3725.78961	0.01341
3723.73003	0.01364
3721.67044	0.01321
3719.61086	0.01266
3717.55127	0.01256
3715.49169	0.01270
3713.43210	0.01282
3711.37251	0.01292
3709.31293	0.01284
3707.25334	0.01287
3705.19376	0.01315
3703.13417	0.01353
3701.07459	0.01391
3699.01500	0.01420
3696.95542	0.01441
3694.89583	0.01444
3692.83625	0.01394
3690.77666	0.01331
3688.71708	0.01303
3686.65749	0.01323
3684.59791	0.01375
3682.53832	0.01428
3680.47874	0.01459
3678.41915	0.01479
3676.35957	0.01492
3674.29998	0.01463
3672.24040	0.01416
3670.18081	0.01422
3668.12123	0.01494
3666.06164	0.01565
3664.00206	0.01605
3661.94247	0.01634
3659.88289	0.01654
3657.82330	0.01645
3655.76371	0.01650
3653.70413	0.01725
3651.64454	0.01811
3649.58496	0.01801
3647.52537	0.01735
3645.46579	0.01748
3643.40620	0.01850
3641.34662	0.01951
3639.28703	0.02000
3637.22745	0.02028
3635.16786	0.02082
3633.10828	0.02157
3631.04869	0.02203
3628.98911	0.02189
3626.92952	0.02153
3624.86994	0.02178
3622.81035	0.02266
3620.75077	0.02360
3618.69118	0.02439
3616.63160	0.02497
3614.57201	0.02523
3612.51243	0.02515
3610.45284	0.02498
3608.39326	0.02523
3606.33367	0.02593
3604.27408	0.02661
3602.21450	0.02693
3600.15491	0.02723
3598.09533	0.02774
3596.03574	0.02837
3593.97616	0.02928
3591.91657	0.03031
3589.85699	0.03094
3587.79740	0.03144
3585.73782	0.03200
3583.67823	0.03238
3581.61865	0.03253
3579.55906	0.03282
3577.49948	0.03361
3575.43989	0.03468
3573.38031	0.03573
3571.32072	0.03689
3569.26114	0.03777
3567.20155	0.03777
3565.14197	0.03760
3563.08238	0.03802
3561.02280	0.03875
3558.96321	0.03920
3556.90363	0.03948
3554.84404	0.04009
3552.78446	0.04084
3550.72487	0.04158
3548.66528	0.04245
3546.60570	0.04308
3544.54611	0.04336
3542.48653	0.04377
3540.42694	0.04446
3538.36736	0.04531
3536.30777	0.04617
3534.24819	0.04674
3532.18860	0.04666
3530.12902	0.04644
3528.06943	0.04723
3526.00985	0.04855
3523.95026	0.04925
3521.89068	0.04996
3519.83109	0.05111
3517.77151	0.05196
3515.71192	0.05251
3513.65234	0.05327
3511.59275	0.05396
3509.53317	0.05422
3507.47358	0.05446
3505.41400	0.05500
3503.35441	0.05558
3501.29483	0.05605
3499.23524	0.05651
3497.17565	0.05707
3495.11607	0.05771
3493.05648	0.05834
3490.99690	0.05907
3488.93731	0.05973
3486.87773	0.06009
3484.81814	0.06047
3482.75856	0.06097
3480.69897	0.06115
3478.63939	0.06136
3476.57980	0.06220
3474.52022	0.06303
3472.46063	0.06331
3470.40105	0.06350
3468.34146	0.06401
3466.28188	0.06448
3464.22229	0.06453
3462.16271	0.06469
3460.10312	0.06544
3458.04354	0.06617
3455.98395	0.06648
3453.92437	0.06699
3451.86478	0.06777
3449.80520	0.06838
3447.74561	0.06901
3445.68603	0.06982
3443.62644	0.07069
3441.56685	0.07159
3439.50727	0.07232
3437.44768	0.07253
3435.38810	0.07254
3433.32851	0.07275
3431.26893	0.07317
3429.20934	0.07386
3427.14976	0.07478
3425.09017	0.07569
3423.03059	0.07641
3420.97100	0.07691
3418.91142	0.07722
3416.85183	0.07735
3414.79225	0.07778
3412.73266	0.07875
3410.67308	0.07980
3408.61349	0.08037
3406.55391	0.08045
3404.49432	0.08058
3402.43474	0.08117
3400.37515	0.08228
3398.31557	0.08338
3396.25598	0.08385
3394.19640	0.08402
3392.13681	0.08432
3390.07723	0.08476
3388.01764	0.08547
3385.95805	0.08636
3383.89847	0.08707
3381.83888	0.08754
3379.77930	0.08797
3377.71971	0.08842
3375.66013	0.08895
3373.60054	0.08976
3371.54096	0.09076
3369.48137	0.09166
3367.42179	0.09218
3365.36220	0.09230
3363.30262	0.09279
3361.24303	0.09408
3359.18345	0.09533
3357.12386	0.09584
3355.06428	0.09600
3353.00469	0.09661
3350.94511	0.09786
3348.88552	0.09920
3346.82594	0.10028
3344.76635	0.10109
3342.70677	0.10189
3340.64718	0.10290
3338.58760	0.10394
3336.52801	0.10472
3334.46842	0.10532
3332.40884	0.10626
3330.34925	0.10757
3328.28967	0.10882
3326.23008	0.10992
3324.17050	0.11120
3322.11091	0.11263
3320.05133	0.11393
3317.99174	0.11491
3315.93216	0.11562
3313.87257	0.11637
3311.81299	0.11735
3309.75340	0.11861
3307.69382	0.12022
3305.63423	0.12186
3303.57465	0.12292
3301.51506	0.12354
3299.45548	0.12417
3297.39589	0.12493
3295.33631	0.12577
3293.27672	0.12656
3291.21714	0.12710
3289.15755	0.12731
3287.09797	0.12758
3285.03838	0.12809
3282.97880	0.12857
3280.91921	0.12871
3278.85962	0.12822
3276.80004	0.12752
3274.74045	0.12701
3272.68087	0.12645
3270.62128	0.12567
3268.56170	0.12482
3266.50211	0.12399
3264.44253	0.12281
3262.38294	0.12103
3260.32336	0.11909
3258.26377	0.11757
3256.20419	0.11637
3254.14460	0.11506
3252.08502	0.11371
3250.02543	0.11255
3247.96585	0.11121
3245.90626	0.10969
3243.84668	0.10854
3241.78709	0.10782
3239.72751	0.10711
3237.66792	0.10625
3235.60834	0.10548
3233.54875	0.10498
3231.48917	0.10444
3229.42958	0.10369
3227.36999	0.10274
3225.31041	0.10161
3223.25082	0.10073
3221.19124	0.10039
3219.13165	0.10038
3217.07207	0.10030
3215.01248	0.09971
3212.95290	0.09890
3210.89331	0.09816
3208.83373	0.09733
3206.77414	0.09663
3204.71456	0.09626
3202.65497	0.09611
3200.59539	0.09609
3198.53580	0.09566
3196.47622	0.09502
3194.41663	0.09470
3192.35705	0.09428
3190.29746	0.09344
3188.23788	0.09237
3186.17829	0.09140
3184.11871	0.09074
3182.05912	0.09014
3179.99954	0.08946
3177.93995	0.08869
3175.88037	0.08794
3173.82078	0.08723
3171.76119	0.08643
3169.70161	0.08571
3167.64202	0.08524
3165.58244	0.08485
3163.52285	0.08421
3161.46327	0.08325
3159.40368	0.08227
3157.34410	0.08159
3155.28451	0.08105
3153.22493	0.08051
3151.16534	0.08029
3149.10576	0.08023
3147.04617	0.07979
3144.98659	0.07904
3142.92700	0.07836
3140.86742	0.07792
3138.80783	0.07756
3136.74825	0.07704
3134.68866	0.07644
3132.62908	0.07582
3130.56949	0.07538
3128.50991	0.07528
3126.45032	0.07514
3124.39074	0.07453
3122.33115	0.07382
3120.27156	0.07356
3118.21198	0.07352
3116.15239	0.07341
3114.09281	0.07333
3112.03322	0.07336
3109.97364	0.07341
3107.91405	0.07328
3105.85447	0.07297
3103.79488	0.07271
3101.73530	0.07280
3099.67571	0.07333
3097.61613	0.07373
3095.55654	0.07350
3093.49696	0.07330
3091.43737	0.07380
3089.37779	0.07441
3087.31820	0.07451
3085.25862	0.07440
3083.19903	0.07468
3081.13945	0.07516
3079.07986	0.07521
3077.02028	0.07501
3074.96069	0.07510
3072.90111	0.07532
3070.84152	0.07538
3068.78194	0.07520
3066.72235	0.07483
3064.66276	0.07444
3062.60318	0.07402
3060.54359	0.07371
3058.48401	0.07380
3056.42442	0.07404
3054.36484	0.07381
3052.30525	0.07329
3050.24567	0.07298
3048.18608	0.07265
3046.12650	0.07226
3044.06691	0.07219
3042.00733	0.07206
3039.94774	0.07138
3037.88816	0.07059
3035.82857	0.07002
3033.76899	0.06942
3031.70940	0.06880
3029.64982	0.06835
3027.59023	0.06786
3025.53065	0.06722
3023.47106	0.06674
3021.41148	0.06647
3019.35189	0.06622
3017.29231	0.06590
3015.23272	0.06555
3013.17313	0.06522
3011.11355	0.06502
3009.05396	0.06489
3006.99438	0.06460
3004.93479	0.06408
3002.87521	0.06362
3000.81562	0.06370
2998.75604	0.06422
2996.69645	0.06458
2994.63687	0.06457
2992.57728	0.06449
2990.51770	0.06478
2988.45811	0.06540
2986.39853	0.06627
2984.33894	0.06755
2982.27936	0.06899
2980.21977	0.07006
2978.16019	0.07077
2976.10060	0.07169
2974.04102	0.07299
2971.98143	0.07426
2969.92185	0.07533
2967.86226	0.07654
2965.80268	0.07811
2963.74309	0.07962
2961.68351	0.08051
2959.62392	0.08081
2957.56433	0.08099
2955.50475	0.08099
2953.44516	0.08038
2951.38558	0.07944
2949.32599	0.07883
2947.26641	0.07892
2945.20682	0.07958
2943.14724	0.08030
2941.08765	0.08120
2939.02807	0.08266
2936.96848	0.08454
2934.90890	0.08666
2932.84931	0.08886
2930.78973	0.09097
2928.73014	0.09281
2926.67056	0.09433
2924.61097	0.09547
2922.55139	0.09614
2920.49180	0.09660
2918.43222	0.09681
2916.37263	0.09568
2914.31305	0.09230
2912.25346	0.08756
2910.19388	0.08327
2908.13429	0.08022
2906.07471	0.07804
2904.01512	0.07602
2901.95553	0.07396
2899.89595	0.07226
2897.83636	0.07106
2895.77678	0.06989
2893.71719	0.06859
2891.65761	0.06768
2889.59802	0.06706
2887.53844	0.06629
2885.47885	0.06561
2883.41927	0.06537
2881.35968	0.06567
2879.30010	0.06613
2877.24051	0.06638
2875.18093	0.06663
2873.12134	0.06687
2871.06176	0.06663
2869.00217	0.06589
2866.94259	0.06504
2864.88300	0.06439
2862.82342	0.06419
2860.76383	0.06452
2858.70425	0.06553
2856.64466	0.06740
2854.58508	0.06977
2852.52549	0.07143
2850.46590	0.07104
2848.40632	0.06841
2846.34673	0.06466
2844.28715	0.06101
2842.22756	0.05787
2840.16798	0.05539
2838.10839	0.05357
2836.04881	0.05211
2833.98922	0.05084
2831.92964	0.05008
2829.87005	0.04989
2827.81047	0.04954
2825.75088	0.04883
2823.69130	0.04828
2821.63171	0.04785
2819.57213	0.04733
2817.51254	0.04685
2815.45296	0.04659
2813.39337	0.04650
2811.33379	0.04625
2809.27420	0.04577
2807.21462	0.04531
2805.15503	0.04484
2803.09545	0.04430
2801.03586	0.04379
2798.97628	0.04338
2796.91669	0.04306
2794.85710	0.04286
2792.79752	0.04259
2790.73793	0.04211
2788.67835	0.04161
2786.61876	0.04125
2784.55918	0.04099
2782.49959	0.04059
2780.44001	0.04017
2778.38042	0.03993
2776.32084	0.03969
2774.26125	0.03939
2772.20167	0.03929
2770.14208	0.03925
2768.08250	0.03901
2766.02291	0.03872
2763.96333	0.03841
2761.90374	0.03821
2759.84416	0.03817
2757.78457	0.03800
2755.72499	0.03768
2753.66540	0.03748
2751.60582	0.03730
2749.54623	0.03703
2747.48665	0.03677
2745.42706	0.03650
2743.36747	0.03641
2741.30789	0.03658
2739.24830	0.03657
2737.18872	0.03620
2735.12913	0.03575
2733.06955	0.03544
2731.00996	0.03531
2728.95038	0.03530
2726.89079	0.03521
2724.83121	0.03478
2722.77162	0.03424
2720.71204	0.03392
2718.65245	0.03380
2716.59287	0.03379
2714.53328	0.03366
2712.47370	0.03332
2710.41411	0.03296
2708.35453	0.03267
2706.29494	0.03254
2704.23536	0.03250
2702.17577	0.03224
2700.11619	0.03181
2698.05660	0.03150
2695.99702	0.03146
2693.93743	0.03164
2691.87785	0.03184
2689.81826	0.03176
2687.75867	0.03138
2685.69909	0.03102
2683.63950	0.03071
2681.57992	0.03043
2679.52033	0.03025
2677.46075	0.03005
2675.40116	0.02982
2673.34158	0.02970
2671.28199	0.02970
2669.22241	0.02988
2667.16282	0.02994
2665.10324	0.02963
2663.04365	0.02962
2660.98407	0.03002
2658.92448	0.03000
2656.86490	0.02959
2654.80531	0.02936
2652.74573	0.02922
2650.68614	0.02908
2648.62656	0.02912
2646.56697	0.02894
2644.50739	0.02850
2642.44780	0.02833
2640.38822	0.02839
2638.32863	0.02829
2636.26904	0.02824
2634.20946	0.02840
2632.14987	0.02836
2630.09029	0.02804
2628.03070	0.02777
2625.97112	0.02758
2623.91153	0.02744
2621.85195	0.02742
2619.79236	0.02728
2617.73278	0.02697
2615.67319	0.02679
2613.61361	0.02663
2611.55402	0.02637
2609.49444	0.02622
2607.43485	0.02621
2605.37527	0.02620
2603.31568	0.02607
2601.25610	0.02596
2599.19651	0.02575
2597.13693	0.02537
2595.07734	0.02520
2593.01776	0.02535
2590.95817	0.02543
2588.89859	0.02520
2586.83900	0.02469
2584.77942	0.02412
2582.71983	0.02384
2580.66024	0.02394
2578.60066	0.02411
2576.54107	0.02406
2574.48149	0.02382
2572.42190	0.02350
2570.36232	0.02322
2568.30273	0.02304
2566.24315	0.02257
2564.18356	0.02196
2562.12398	0.02195
2560.06439	0.02234
2558.00481	0.02273
2555.94522	0.02317
2553.88564	0.02322
2551.82605	0.02267
2549.76647	0.02214
2547.70688	0.02182
2545.64730	0.02163
2543.58771	0.02166
2541.52813	0.02154
2539.46854	0.02109
2537.40896	0.02092
2535.34937	0.02138
2533.28979	0.02168
2531.23020	0.02125
2529.17062	0.02074
2527.11103	0.02068
2525.05144	0.02069
2522.99186	0.02050
2520.93227	0.02013
2518.87269	0.01974
2516.81310	0.01971
2514.75352	0.01990
2512.69393	0.02001
2510.63435	0.02014
2508.57476	0.02012
2506.51518	0.01986
2504.45559	0.01972
2502.39601	0.01942
2500.33642	0.01885
2498.27684	0.01865
2496.21725	0.01874
2494.15767	0.01871
2492.09808	0.01871
2490.03850	0.01876
2487.97891	0.01872
2485.91933	0.01860
2483.85974	0.01831
2481.80016	0.01805
2479.74057	0.01812
2477.68099	0.01822
2475.62140	0.01804
2473.56181	0.01796
2471.50223	0.01803
2469.44264	0.01800
2467.38306	0.01751
2465.32347	0.01666
2463.26389	0.01624
2461.20430	0.01648
2459.14472	0.01695
2457.08513	0.01725
2455.02555	0.01734
2452.96596	0.01723
2450.90638	0.01700
2448.84679	0.01686
2446.78721	0.01686
2444.72762	0.01689
2442.66804	0.01692
2440.60845	0.01685
2438.54887	0.01659
2436.48928	0.01627
2434.42970	0.01610
2432.37011	0.01622
2430.31053	0.01652
2428.25094	0.01654
2426.19136	0.01639
2424.13177	0.01652
2422.07219	0.01648
2420.01260	0.01591
2417.95301	0.01540
2415.89343	0.01527
2413.83384	0.01516
2411.77426	0.01503
2409.71467	0.01490
2407.65509	0.01462
2405.59550	0.01437
2403.53592	0.01434
2401.47633	0.01429
2399.41675	0.01430
2397.35716	0.01435
2395.29758	0.01443
2393.23799	0.01432
2391.17841	0.01402
2389.11882	0.01380
2387.05924	0.01386
2384.99965	0.01405
2382.94007	0.01414
2380.88048	0.01420
2378.82090	0.01440
2376.76131	0.01522
2374.70173	0.01509
2372.64214	0.01520
2370.58256	0.01598
2368.52297	0.01549
2366.46338	0.01591
2364.40380	0.01520
2362.34421	0.01430
2360.28463	0.01566
2358.22504	0.01527
2356.16546	0.01518
2354.10587	0.01472
2352.04629	0.01399
2349.98670	0.01713
2347.92712	0.01616
2345.86753	0.01365
2343.80795	0.01433
2341.74836	0.01351
2339.68878	0.01519
2337.62919	0.01584
2335.56961	0.01434
2333.51002	0.01507
2331.45044	0.01425
2329.39085	0.01538
2327.33127	0.01429
2325.27168	0.01492
2323.21210	0.01495
2321.15251	0.01501
2319.09293	0.01480
2317.03334	0.01407
2314.97376	0.01378
2312.91417	0.01358
2310.85458	0.01336
2308.79500	0.01320
2306.73541	0.01275
2304.67583	0.01248
2302.61624	0.01236
2300.55666	0.01242
2298.49707	0.01256
2296.43749	0.01279
2294.37790	0.01279
2292.31832	0.01300
2290.25873	0.01340
2288.19915	0.01378
2286.13956	0.01389
2284.07998	0.01380
2282.02039	0.01340
2279.96081	0.01304
2277.90122	0.01300
2275.84164	0.01327
2273.78205	0.01351
2271.72247	0.01313
2269.66288	0.01243
2267.60330	0.01199
2265.54371	0.01170
2263.48413	0.01120
2261.42454	0.01096
2259.36495	0.01116
2257.30537	0.01134
2255.24578	0.01103
2253.18620	0.01043
2251.12661	0.01029
2249.06703	0.01068
2247.00744	0.01065
2244.94786	0.01057
2242.88827	0.01112
2240.82869	0.01170
2238.76910	0.01158
2236.70952	0.01087
2234.64993	0.01047
2232.59035	0.01083
2230.53076	0.01107
2228.47118	0.01089
2226.41159	0.01057
2224.35201	0.01000
2222.29242	0.01012
2220.23284	0.01087
2218.17325	0.01057
2216.11367	0.00953
2214.05408	0.00913
2211.99450	0.00966
2209.93491	0.01021
2207.87533	0.00985
2205.81574	0.00955
2203.75615	0.01014
2201.69657	0.01056
2199.63698	0.01022
2197.57740	0.00926
2195.51781	0.00852
2193.45823	0.00873
2191.39864	0.00903
2189.33906	0.00915
2187.27947	0.00963
2185.21989	0.01002
2183.16030	0.00987
2181.10072	0.00975
2179.04113	0.00969
2176.98155	0.00933
2174.92196	0.00938
2172.86238	0.00989
2170.80279	0.01068
2168.74321	0.01168
2166.68362	0.01196
2164.62404	0.01123
2162.56445	0.01027
2160.50487	0.00928
2158.44528	0.00771
2156.38570	0.00646
2154.32611	0.00684
2152.26652	0.00796
2150.20694	0.00850
2148.14735	0.00869
2146.08777	0.00903
2144.02818	0.00927
2141.96860	0.00902
2139.90901	0.00851
2137.84943	0.00802
2135.78984	0.00733
2133.73026	0.00705
2131.67067	0.00780
2129.61109	0.00875
2127.55150	0.00920
2125.49192	0.00926
2123.43233	0.00937
2121.37275	0.00951
2119.31316	0.00934
2117.25358	0.00924
2115.19399	0.00955
2113.13441	0.00984
2111.07482	0.00999
2109.01524	0.01004
2106.95565	0.00984
2104.89607	0.00964
2102.83648	0.00989
2100.77690	0.01010
2098.71731	0.00995
2096.65772	0.00974
2094.59814	0.00976
2092.53855	0.01002
2090.47897	0.01022
2088.41938	0.01030
2086.35980	0.01037
2084.30021	0.01031
2082.24063	0.01029
2080.18104	0.01040
2078.12146	0.01020
2076.06187	0.00969
2074.00229	0.00942
2071.94270	0.00956
2069.88312	0.00981
2067.82353	0.01001
2065.76395	0.01000
2063.70436	0.00995
2061.64478	0.01006
2059.58519	0.00970
2057.52561	0.00882
2055.46602	0.00860
2053.40644	0.00932
2051.34685	0.00967
2049.28727	0.00883
2047.22768	0.00793
2045.16810	0.00787
2043.10851	0.00829
2041.04892	0.00865
2038.98934	0.00827
2036.92975	0.00747
2034.87017	0.00759
2032.81058	0.00841
2030.75100	0.00843
2028.69141	0.00744
2026.63183	0.00676
2024.57224	0.00676
2022.51266	0.00662
2020.45307	0.00634
2018.39349	0.00673
2016.33390	0.00721
2014.27432	0.00703
2012.21473	0.00689
2010.15515	0.00675
2008.09556	0.00615
2006.03598	0.00599
2003.97639	0.00681
2001.91681	0.00758
1999.85722	0.00738
1997.79764	0.00704
1995.73805	0.00748
1993.67847	0.00804
1991.61888	0.00778
1989.55929	0.00731
1987.49971	0.00785
1985.44012	0.00851
1983.38054	0.00832
1981.32095	0.00813
1979.26137	0.00803
1977.20178	0.00762
1975.14220	0.00742
1973.08261	0.00767
1971.02303	0.00779
1968.96344	0.00730
1966.90386	0.00650
1964.84427	0.00624
1962.78469	0.00628
1960.72510	0.00586
1958.66552	0.00536
1956.60593	0.00522
1954.54635	0.00518
1952.48676	0.00546
1950.42718	0.00615
1948.36759	0.00656
1946.30801	0.00660
1944.24842	0.00677
1942.18884	0.00704
1940.12925	0.00707
1938.06967	0.00687
1936.01008	0.00687
1933.95049	0.00687
1931.89091	0.00649
1929.83132	0.00608
1927.77174	0.00620
1925.71215	0.00686
1923.65257	0.00730
1921.59298	0.00712
1919.53340	0.00709
1917.47381	0.00736
1915.41423	0.00731
1913.35464	0.00697
1911.29506	0.00654
1909.23547	0.00627
1907.17589	0.00631
1905.11630	0.00635
1903.05672	0.00635
1900.99713	0.00663
1898.93755	0.00710
1896.87796	0.00744
1894.81838	0.00757
1892.75879	0.00734
1890.69921	0.00694
1888.63962	0.00707
1886.58004	0.00754
1884.52045	0.00767
1882.46086	0.00745
1880.40128	0.00714
1878.34169	0.00692
1876.28211	0.00692
1874.22252	0.00694
1872.16294	0.00700
1870.10335	0.00723
1868.04377	0.00735
1865.98418	0.00722
1863.92460	0.00693
1861.86501	0.00665
1859.80543	0.00665
1857.74584	0.00695
1855.68626	0.00732
1853.62667	0.00761
1851.56709	0.00770
1849.50750	0.00759
1847.44792	0.00749
1845.38833	0.00759
1843.32875	0.00774
1841.26916	0.00770
1839.20958	0.00749
1837.14999	0.00737
1835.09041	0.00737
1833.03082	0.00732
1830.97124	0.00724
1828.91165	0.00730
1826.85206	0.00738
1824.79248	0.00736
1822.73289	0.00737
1820.67331	0.00746
1818.61372	0.00745
1816.55414	0.00725
1814.49455	0.00706
1812.43497	0.00720
1810.37538	0.00765
1808.31580	0.00798
1806.25621	0.00799
1804.19663	0.00788
1802.13704	0.00782
1800.07746	0.00780
1798.01787	0.00795
1795.95829	0.00824
1793.89870	0.00841
1791.83912	0.00835
1789.77953	0.00825
1787.71995	0.00827
1785.66036	0.00830
1783.60078	0.00828
1781.54119	0.00833
1779.48161	0.00840
1777.42202	0.00836
1775.36243	0.00829
1773.30285	0.00838
1771.24326	0.00868
1769.18368	0.00902
1767.12409	0.00921
1765.06451	0.00930
1763.00492	0.00942
1760.94534	0.00962
1758.88575	0.00986
1756.82617	0.01007
1754.76658	0.01022
1752.70700	0.01042
1750.64741	0.01083
1748.58783	0.01134
1746.52824	0.01181
1744.46866	0.01224
1742.40907	0.01279
1740.34949	0.01347
1738.28990	0.01418
1736.23032	0.01487
1734.17073	0.01547
1732.11115	0.01596
1730.05156	0.01644
1727.99198	0.01693
1725.93239	0.01743
1723.87281	0.01808
1721.81322	0.01888
1719.75363	0.01971
1717.69405	0.02050
1715.63446	0.02135
1713.57488	0.02247
1711.51529	0.02390
1709.45571	0.02558
1707.39612	0.02753
1705.33654	0.02988
1703.27695	0.03276
1701.21737	0.03670
1699.15778	0.04174
1697.09820	0.04674
1695.03861	0.05132
1692.97903	0.05537
1690.91944	0.05917
1688.85986	0.06309
1686.80027	0.06722
1684.74069	0.07222
1682.68110	0.07774
1680.62152	0.08241
1678.56193	0.08655
1676.50235	0.09103
1674.44276	0.09605
1672.38318	0.10117
1670.32359	0.10663
1668.26401	0.11255
1666.20442	0.11817
1664.14483	0.12384
1662.08525	0.12998
1660.02566	0.13555
1657.96608	0.13987
1655.90649	0.14324
1653.84691	0.14600
1651.78732	0.14792
1649.72774	0.14862
1647.66815	0.14825
1645.60857	0.14739
1643.54898	0.14673
1641.48940	0.14630
1639.42981	0.14568
1637.37023	0.14445
1635.31064	0.14246
1633.25106	0.14028
1631.19147	0.13821
1629.13189	0.13583
1627.07230	0.13296
1625.01272	0.12958
1622.95313	0.12556
1620.89355	0.12136
1618.83396	0.11715
1616.77438	0.11227
1614.71479	0.10725
1612.65520	0.10293
1610.59562	0.09897
1608.53603	0.09512
1606.47645	0.09150
1604.41686	0.08818
1602.35728	0.08520
1600.29769	0.08275
1598.23811	0.08095
1596.17852	0.07973
1594.11894	0.07890
1592.05935	0.07828
1589.99977	0.07774
1587.94018	0.07726
1585.88060	0.07699
1583.82101	0.07706
1581.76143	0.07737
1579.70184	0.07784
1577.64226	0.07841
1575.58267	0.07909
1573.52309	0.07999
1571.46350	0.08116
1569.40392	0.08272
1567.34433	0.08467
1565.28475	0.08695
1563.22516	0.08942
1561.16558	0.09214
1559.10599	0.09583
1557.04640	0.10032
1554.98682	0.10455
1552.92723	0.10856
1550.86765	0.11248
1548.80806	0.11615
1546.74848	0.11929
1544.68889	0.12186
1542.62931	0.12384
1540.56972	0.12506
1538.51014	0.12552
1536.45055	0.12555
1534.39097	0.12528
1532.33138	0.12477
1530.27180	0.12427
1528.21221	0.12378
1526.15263	0.12313
1524.09304	0.12242
1522.03346	0.12179
1519.97387	0.12130
1517.91429	0.12075
1515.85470	0.11962
1513.79512	0.11765
1511.73553	0.11495
1509.67595	0.11143
1507.61636	0.10658
1505.55677	0.10107
1503.49719	0.09694
1501.43760	0.09375
1499.37802	0.09016
1497.31843	0.08579
1495.25885	0.08131
1493.19926	0.07747
1491.13968	0.07380
1489.08009	0.06978
1487.02051	0.06611
1484.96092	0.06335
1482.90134	0.06133
1480.84175	0.05979
1478.78217	0.05881
1476.72258	0.05860
1474.66300	0.05918
1472.60341	0.06030
1470.54383	0.06145
1468.48424	0.06229
1466.42466	0.06285
1464.36507	0.06330
1462.30549	0.06389
1460.24590	0.06476
1458.18632	0.06592
1456.12673	0.06700
1454.06715	0.06755
1452.00756	0.06752
1449.94797	0.06703
1447.88839	0.06611
1445.82880	0.06493
1443.76922	0.06375
1441.70963	0.06274
1439.65005	0.06185
1437.59046	0.06074
1435.53088	0.05928
1433.47129	0.05792
1431.41171	0.05687
1429.35212	0.05612
1427.29254	0.05581
1425.23295	0.05600
1423.17337	0.05660
1421.11378	0.05761
1419.05420	0.05896
1416.99461	0.06041
1414.93503	0.06175
1412.87544	0.06298
1410.81586	0.06409
1408.75627	0.06510
1406.69669	0.06600
1404.63710	0.06675
1402.57752	0.06728
1400.51793	0.06759
1398.45834	0.06771
1396.39876	0.06770
1394.33917	0.06758
1392.27959	0.06738
1390.22000	0.06712
1388.16042	0.06669
1386.10083	0.06603
1384.04125	0.06519
1381.98166	0.06419
1379.92208	0.06303
1377.86249	0.06182
1375.80291	0.06054
1373.74332	0.05921
1371.68374	0.05801
1369.62415	0.05704
1367.56457	0.05624
1365.50498	0.05547
1363.44540	0.05456
1361.38581	0.05353
1359.32623	0.05257
1357.26664	0.05180
1355.20706	0.05131
1353.14747	0.05103
1351.08789	0.05086
1349.02830	0.05073
1346.96872	0.05061
1344.90913	0.05055
1342.84954	0.05052
1340.78996	0.05043
1338.73037	0.05039
1336.67079	0.05059
1334.61120	0.05102
1332.55162	0.05152
1330.49203	0.05181
1328.43245	0.05175
1326.37286	0.05145
1324.31328	0.05118
1322.25369	0.05109
1320.19411	0.05122
1318.13452	0.05152
1316.07494	0.05181
1314.01535	0.05201
1311.95577	0.05218
1309.89618	0.05226
1307.83660	0.05222
1305.77701	0.05212
1303.71743	0.05201
1301.65784	0.05181
1299.59826	0.05150
1297.53867	0.05115
1295.47909	0.05080
1293.41950	0.05046
1291.35991	0.05015
1289.30033	0.04985
1287.24074	0.04956
1285.18116	0.04940
1283.12157	0.04933
1281.06199	0.04923
1279.00240	0.04913
1276.94282	0.04923
1274.88323	0.04949
1272.82365	0.04977
1270.76406	0.05011
1268.70448	0.05050
1266.64489	0.05076
1264.58531	0.05088
1262.52572	0.05099
1260.46614	0.05122
1258.40655	0.05156
1256.34697	0.05205
1254.28738	0.05280
1252.22780	0.05374
1250.16821	0.05471
1248.10863	0.05559
1246.04904	0.05620
1243.98946	0.05652
1241.92987	0.05664
1239.87029	0.05664
1237.81070	0.05649
1235.75111	0.05620
1233.69153	0.05577
1231.63194	0.05529
1229.57236	0.05484
1227.51277	0.05441
1225.45319	0.05391
1223.39360	0.05323
1221.33402	0.05231
1219.27443	0.05133
1217.21485	0.05046
1215.15526	0.04962
1213.09568	0.04872
1211.03609	0.04775
1208.97651	0.04679
1206.91692	0.04591
1204.85734	0.04505
1202.79775	0.04424
1200.73817	0.04355
1198.67858	0.04288
1196.61900	0.04214
1194.55941	0.04144
1192.49983	0.04098
1190.44024	0.04070
1188.38066	0.04035
1186.32107	0.03991
1184.26149	0.03961
1182.20190	0.03953
1180.14231	0.03967
1178.08273	0.04004
1176.02314	0.04042
1173.96356	0.04066
1171.90397	0.04082
1169.84439	0.04088
1167.78480	0.04079
1165.72522	0.04056
1163.66563	0.04025
1161.60605	0.03994
1159.54646	0.03968
1157.48688	0.03937
1155.42729	0.03894
1153.36771	0.03842
1151.30812	0.03792
1149.24854	0.03741
1147.18895	0.03680
1145.12937	0.03631
1143.06978	0.03617
1141.01020	0.03626
1138.95061	0.03634
1136.89103	0.03646
1134.83144	0.03672
1132.77186	0.03697
1130.71227	0.03718
1128.65268	0.03743
1126.59310	0.03773
1124.53351	0.03804
1122.47393	0.03824
1120.41434	0.03824
1118.35476	0.03822
1116.29517	0.03832
1114.23559	0.03846
1112.17600	0.03863
1110.11642	0.03882
1108.05683	0.03909
1105.99725	0.03939
1103.93766	0.03962
1101.87808	0.03974
1099.81849	0.03975
1097.75891	0.03975
1095.69932	0.03981
1093.63974	0.03999
1091.58015	0.04033
1089.52057	0.04090
1087.46098	0.04160
1085.40140	0.04227
1083.34181	0.04280
1081.28223	0.04315
1079.22264	0.04337
1077.16306	0.04347
1075.10347	0.04341
1073.04388	0.04327
1070.98430	0.04316
1068.92471	0.04309
1066.86513	0.04290
1064.80554	0.04261
1062.74596	0.04244
1060.68637	0.04241
1058.62679	0.04236
1056.56720	0.04224
1054.50762	0.04201
1052.44803	0.04176
1050.38845	0.04155
1048.32886	0.04128
1046.26928	0.04092
1044.20969	0.04048
1042.15011	0.03990
1040.09052	0.03914
1038.03094	0.03833
1035.97135	0.03761
1033.91177	0.03696
1031.85218	0.03635
1029.79260	0.03576
1027.73301	0.03513
1025.67343	0.03441
1023.61384	0.03369
1021.55425	0.03300
1019.49467	0.03231
1017.43508	0.03159
1015.37550	0.03094
1013.31591	0.03045
1011.25633	0.02999
1009.19674	0.02939
1007.13716	0.02875
1005.07757	0.02820
1003.01799	0.02768
1000.95840	0.02710
998.89882	0.02656
996.83923	0.02613
994.77965	0.02581
992.72006	0.02553
990.66048	0.02523
988.60089	0.02495
986.54131	0.02483
984.48172	0.02476
982.42214	0.02461
980.36255	0.02446
978.30297	0.02440
976.24338	0.02440
974.18380	0.02449
972.12421	0.02457
970.06463	0.02459
968.00504	0.02457
965.94545	0.02447
963.88587	0.02418
961.82628	0.02376
959.76670	0.02340
957.70711	0.02312
955.64753	0.02287
953.58794	0.02271
951.52836	0.02259
949.46877	0.02246
947.40919	0.02237
945.34960	0.02232
943.29002	0.02228
941.23043	0.02230
939.17085	0.02244
937.11126	0.02257
935.05168	0.02260
932.99209	0.02258
930.93251	0.02256
928.87292	0.02251
926.81334	0.02244
924.75375	0.02234
922.69417	0.02219
920.63458	0.02204
918.57500	0.02193
916.51541	0.02182
914.45582	0.02162
912.39624	0.02138
910.33665	0.02123
908.27707	0.02120
906.21748	0.02124
904.15790	0.02130
902.09831	0.02131
900.03873	0.02137
897.97914	0.02155
895.91956	0.02166
893.85997	0.02156
891.80039	0.02131
889.74080	0.02108
887.68122	0.02101
885.62163	0.02110
883.56205	0.02128
881.50246	0.02138
879.44288	0.02135
877.38329	0.02135
875.32371	0.02134
873.26412	0.02124
871.20454	0.02112
869.14495	0.02100
867.08537	0.02087
865.02578	0.02075
862.96620	0.02070
860.90661	0.02077
858.84702	0.02098
856.78744	0.02131
854.72785	0.02160
852.66827	0.02178
850.60868	0.02197
848.54910	0.02234
846.48951	0.02285
844.42993	0.02339
842.37034	0.02388
840.31076	0.02414
838.25117	0.02406
836.19159	0.02387
834.13200	0.02379
832.07242	0.02393
830.01283	0.02414
827.95325	0.02411
825.89366	0.02394
823.83408	0.02389
821.77449	0.02394
819.71491	0.02405
817.65532	0.02415
815.59574	0.02417
813.53615	0.02426
811.47657	0.02450
809.41698	0.02476
807.35740	0.02488
805.29781	0.02495
803.23822	0.02516
801.17864	0.02538
799.11905	0.02549
797.05947	0.02566
794.99988	0.02593
792.94030	0.02611
790.88071	0.02608
788.82113	0.02613
786.76154	0.02633
784.70196	0.02655
782.64237	0.02684
780.58279	0.02718
778.52320	0.02746
776.46362	0.02767
774.40403	0.02785
772.34445	0.02804
770.28486	0.02827
768.22528	0.02845
766.16569	0.02848
764.10611	0.02856
762.04652	0.02883
759.98694	0.02917
757.92735	0.02945
755.86777	0.02968
753.80818	0.02994
751.74859	0.03022
749.68901	0.03053
747.62942	0.03082
745.56984	0.03099
743.51025	0.03107
741.45067	0.03127
739.39108	0.03153
737.33150	0.03161
735.27191	0.03158
733.21233	0.03159
731.15274	0.03178
729.09316	0.03215
727.03357	0.03246
724.97399	0.03271
722.91440	0.03310
720.85482	0.03347
718.79523	0.03415
716.73565	0.03452
714.67606	0.03489
712.61648	0.03525
710.55689	0.03572
708.49731	0.03633
706.43772	0.03693
704.37814	0.03738
702.31855	0.03762
700.25897	0.03779
698.19938	0.03797
696.13979	0.03804
694.08021	0.03791
692.02062	0.03771
689.96104	0.03770
687.90145	0.03783
685.84187	0.03798
683.78228	0.03819
681.72270	0.03841
679.66311	0.03861
677.60353	0.03875
675.54394	0.03866
673.48436	0.03850
671.42477	0.04004
669.36519	0.04251
667.30560	0.03745
665.24602	0.04046
663.18643	0.03966
661.12685	0.03917
659.06726	0.03932
657.00768	0.03950
654.94809	0.03956
652.88851	0.03947
650.82892	0.03940
648.76934	0.03931
646.70975	0.03941
644.65016	0.03943
642.59058	0.03945
640.53099	0.03946
638.47141	0.03942
636.41182	0.03944
634.35224	0.03955
632.29265	0.03966
630.23307	0.03976
628.17348	0.03987
626.11390	0.03996
624.05431	0.03996
621.99473	0.03999
619.93514	0.04020
617.87556	0.04035
615.81597	0.04011
613.75639	0.03967
611.69680	0.03943
609.63722	0.03943
607.57763	0.03945
605.51805	0.03938
603.45846	0.03919
601.39888	0.03903
599.33929	0.03909
597.27971	0.03918
595.22012	0.03906
593.16054	0.03887
591.10095	0.03882
589.04136	0.03884
586.98178	0.03891
584.92219	0.03893
582.86261	0.03880
580.80302	0.03873
578.74344	0.03882
576.68385	0.03893
574.62427	0.03897
572.56468	0.03894
570.50510	0.03885
568.44551	0.03874
566.38593	0.03852
564.32634	0.03836
562.26676	0.03843
560.20717	0.03848
558.14759	0.03836
556.08800	0.03822
554.02842	0.03815
551.96883	0.03820
549.90925	0.03842
547.84966	0.03873
545.79008	0.03887
543.73049	0.03872
541.67091	0.03843
539.61132	0.03827
537.55173	0.03829
535.49215	0.03822
533.43256	0.03816
531.37298	0.03837
529.31339	0.03866
527.25381	0.03876
525.19422	0.03877
523.13464	0.03873
521.07505	0.03856
519.01547	0.03821
516.95588	0.03768
514.89630	0.03716
512.83671	0.03680
510.77713	0.03653
508.71754	0.03635
506.65796	0.03622
504.59837	0.03603
502.53879	0.03570
500.47920	0.03518
498.41962	0.03468
496.36003	0.03448
494.30045	0.03449
492.24086	0.03452
490.18128	0.03441
488.12169	0.03408
486.06211	0.03362
484.00252	0.03333
481.94293	0.03320
479.88335	0.03303
477.82376	0.03282
475.76418	0.03265
473.70459	0.03272
471.64501	0.03293
469.58542	0.03292
467.52584	0.03257
465.46625	0.03214
463.40667	0.03187
461.34708	0.03175
459.28750	0.03160
457.22791	0.03139
455.16833	0.03113
453.10874	0.03087
451.04916	0.03073
448.98957	0.03061
446.92999	0.03025
444.87040	0.02969
442.81082	0.02920
440.75123	0.02878
438.69165	0.02839
436.63206	0.02817
434.57248	0.02801
432.51289	0.02772
430.45330	0.02747
428.39372	0.02770
426.33413	0.02808
424.27455	0.02776
422.21496	0.02716
420.15538	0.02722
418.09579	0.02748
416.03621	0.02713
413.97662	0.02663
411.91704	0.02639
409.85745	0.02619
407.79787	0.02593
405.73828	0.02555
403.67870	0.02505
401.61911	0.02483
399.55953	0.02490
