3997.70013,0.05652
3995.64052,0.05596
3993.58092,0.05555
3991.52131,0.05555
3989.46170,0.05553
3987.40209,0.05517
3985.34248,0.05450
3983.28287,0.05415
3981.22327,0.05457
3979.16366,0.05493
3977.10405,0.05499
3975.04444,0.05495
3972.98483,0.05460
3970.92522,0.05433
3968.86561,0.05436
3966.80601,0.05469
3964.74640,0.05503
3962.68679,0.05523
3960.62718,0.05549
3958.56757,0.05518
3956.50796,0.05448
3954.44835,0.05459
3952.38875,0.05543
3950.32914,0.05563
3948.26953,0.05499
3946.20992,0.05436
3944.15031,0.05423
3942.09070,0.05448
3940.03109,0.05455
3937.97149,0.05444
3935.91188,0.05459
3933.85227,0.05477
3931.79266,0.05460
3929.73305,0.05449
3927.67344,0.05477
3925.61384,0.05475
3923.55423,0.05435
3921.49462,0.05462
3919.43501,0.05517
3917.37540,0.05506
3915.31579,0.05473
3913.25618,0.05434
3911.19658,0.05391
3909.13697,0.05382
3907.07736,0.05380
3905.01775,0.05359
3902.95814,0.05345
3900.89853,0.05345
3898.83892,0.05348
3896.77932,0.05345
3894.71971,0.05311
3892.66010,0.05265
3890.60049,0.05249
3888.54088,0.05265
3886.48127,0.05321
3884.42166,0.05364
3882.36206,0.05326
3880.30245,0.05257
3878.24284,0.05229
3876.18323,0.05260
3874.12362,0.05317
3872.06401,0.05341
3870.00441,0.05332
3867.94480,0.05297
3865.88519,0.05261
3863.82558,0.05269
3861.76597,0.05273
3859.70636,0.05241
3857.64675,0.05215
3855.58715,0.05201
3853.52754,0.05217
3851.46793,0.05238
3849.40832,0.05178
3847.34871,0.05073
3845.28910,0.05024
3843.22949,0.05059
3841.16989,0.05119
3839.11028,0.05199
3837.05067,0.05269
3834.99106,0.05242
3832.93145,0.05170
3830.87184,0.05127
3828.81223,0.05111
3826.75263,0.05124
3824.69302,0.05129
3822.63341,0.05105
3820.57380,0.05124
3818.51419,0.05164
3816.45458,0.05136
3814.39498,0.05082
3812.33537,0.05078
3810.27576,0.05086
3808.21615,0.05068
3806.15654,0.05095
3804.09693,0.05169
3802.03732,0.05158
3799.97772,0.05062
3797.91811,0.04999
3795.85850,0.04949
3793.79889,0.04904
3791.73928,0.04866
3789.67967,0.04815
3787.62006,0.04815
3785.56046,0.04878
3783.50085,0.04938
3781.44124,0.04994
3779.38163,0.05003
3777.32202,0.04925
3775.26241,0.04883
3773.20280,0.04896
3771.14320,0.04889
3769.08359,0.04878
3767.02398,0.04860
3764.96437,0.04829
3762.90476,0.04792
3760.84515,0.04774
3758.78555,0.04827
3756.72594,0.04899
3754.66633,0.04936
3752.60672,0.04942
3750.54711,0.04926
3748.48750,0.04905
3746.42789,0.04895
3744.36829,0.04872
3742.30868,0.04829
3740.24907,0.04805
3738.18946,0.04811
3736.12985,0.04807
3734.07024,0.04771
3732.01063,0.04774
3729.95103,0.04745
3727.89142,0.04679
3725.83181,0.04680
3723.77220,0.04679
3721.71259,0.04624
3719.65298,0.04576
3717.59337,0.04546
3715.53377,0.04567
3713.47416,0.04646
3711.41455,0.04691
3709.35494,0.04644
3707.29533,0.04611
3705.23572,0.04644
3703.17612,0.04685
3701.11651,0.04682
3699.05690,0.04588
3696.99729,0.04461
3694.93768,0.04435
3692.87807,0.04493
3690.81846,0.04566
3688.75886,0.04650
3686.69925,0.04637
3684.63964,0.04553
3682.58003,0.04514
3680.52042,0.04513
3678.46081,0.04527
3676.40120,0.04572
3674.34160,0.04593
3672.28199,0.04547
3670.22238,0.04518
3668.16277,0.04538
3666.10316,0.04563
3664.04355,0.04563
3661.98394,0.04524
3659.92434,0.04528
3657.86473,0.04612
3655.80512,0.04668
3653.74551,0.04631
3651.68590,0.04580
3649.62629,0.04585
3647.56669,0.04654
3645.50708,0.04706
3643.44747,0.04724
3641.38786,0.04773
3639.32825,0.04805
3637.26864,0.04776
3635.20903,0.04804
3633.14943,0.04906
3631.08982,0.04997
3629.03021,0.05108
3626.97060,0.05170
3624.91099,0.05132
3622.85138,0.05116
3620.79177,0.05187
3618.73217,0.05316
3616.67256,0.05422
3614.61295,0.05453
3612.55334,0.05433
3610.49373,0.05426
3608.43412,0.05486
3606.37451,0.05586
3604.31491,0.05648
3602.25530,0.05689
3600.19569,0.05734
3598.13608,0.05771
3596.07647,0.05821
3594.01686,0.05875
3591.95726,0.05929
3589.89765,0.06023
3587.83804,0.06137
3585.77843,0.06204
3583.71882,0.06215
3581.65921,0.06192
3579.59960,0.06212
3577.54000,0.06313
3575.48039,0.06426
3573.42078,0.06498
3571.36117,0.06535
3569.30156,0.06591
3567.24195,0.06682
3565.18234,0.06760
3563.12274,0.06819
3561.06313,0.06875
3559.00352,0.06949
3556.94391,0.07069
3554.88430,0.07178
3552.82469,0.07237
3550.76508,0.07276
3548.70548,0.07305
3546.64587,0.07394
3544.58626,0.07554
3542.52665,0.07698
3540.46704,0.07805
3538.40743,0.07896
3536.34783,0.07981
3534.28822,0.08048
3532.22861,0.08112
3530.16900,0.08205
3528.10939,0.08292
3526.04978,0.08341
3523.99017,0.08408
3521.93057,0.08549
3519.87096,0.08712
3517.81135,0.08799
3515.75174,0.08836
3513.69213,0.08936
3511.63252,0.09105
3509.57291,0.09263
3507.51331,0.09373
3505.45370,0.09492
3503.39409,0.09610
3501.33448,0.09626
3499.27487,0.09650
3497.21526,0.09802
3495.15565,0.09956
3493.09605,0.10053
3491.03644,0.10152
3488.97683,0.10272
3486.91722,0.10418
3484.85761,0.10568
3482.79800,0.10679
3480.73840,0.10755
3478.67879,0.10862
3476.61918,0.11002
3474.55957,0.11133
3472.49996,0.11280
3470.44035,0.11436
3468.38074,0.11570
3466.32114,0.11688
3464.26153,0.11794
3462.20192,0.11894
3460.14231,0.12001
3458.08270,0.12114
3456.02309,0.12230
3453.96348,0.12367
3451.90388,0.12505
3449.84427,0.12593
3447.78466,0.12634
3445.72505,0.12708
3443.66544,0.12870
3441.60583,0.13043
3439.54622,0.13138
3437.48662,0.13176
3435.42701,0.13214
3433.36740,0.13252
3431.30779,0.13295
3429.24818,0.13377
3427.18857,0.13473
3425.12897,0.13541
3423.06936,0.13600
3421.00975,0.13658
3418.95014,0.13703
3416.89053,0.13732
3414.83092,0.13770
3412.77131,0.13820
3410.71171,0.13841
3408.65210,0.13859
3406.59249,0.13925
3404.53288,0.14020
3402.47327,0.14125
3400.41366,0.14218
3398.35405,0.14259
3396.29445,0.14290
3394.23484,0.14355
3392.17523,0.14419
3390.11562,0.14463
3388.05601,0.14528
3385.99640,0.14610
3383.93679,0.14679
3381.87719,0.14742
3379.81758,0.14810
3377.75797,0.14888
3375.69836,0.14986
3373.63875,0.15085
3371.57914,0.15160
3369.51954,0.15236
3367.45993,0.15322
3365.40032,0.15401
3363.34071,0.15438
3361.28110,0.15415
3359.22149,0.15405
3357.16188,0.15480
3355.10228,0.15578
3353.04267,0.15587
3350.98306,0.15539
3348.92345,0.15509
3346.86384,0.15454
3344.80423,0.15395
3342.74462,0.15394
3340.68502,0.15390
3338.62541,0.15350
3336.56580,0.15298
3334.50619,0.15244
3332.44658,0.15172
3330.38697,0.15097
3328.32736,0.15073
3326.26776,0.15050
3324.20815,0.14983
3322.14854,0.14983
3320.08893,0.15068
3318.02932,0.15139
3315.96971,0.15176
3313.91011,0.15199
3311.85050,0.15200
3309.79089,0.15213
3307.73128,0.15261
3305.67167,0.15301
3303.61206,0.15316
3301.55245,0.15321
3299.49285,0.15350
3297.43324,0.15423
3295.37363,0.15485
3293.31402,0.15513
3291.25441,0.15530
3289.19480,0.15535
3287.13519,0.15517
3285.07559,0.15469
3283.01598,0.15415
3280.95637,0.15385
3278.89676,0.15358
3276.83715,0.15320
3274.77754,0.15272
3272.71793,0.15207
3270.65833,0.15134
3268.59872,0.15087
3266.53911,0.15046
3264.47950,0.14994
3262.41989,0.14940
3260.36028,0.14870
3258.30068,0.14778
3256.24107,0.14683
3254.18146,0.14597
3252.12185,0.14536
3250.06224,0.14516
3248.00263,0.14498
3245.94302,0.14443
3243.88342,0.14384
3241.82381,0.14331
3239.76420,0.14255
3237.70459,0.14172
3235.64498,0.14115
3233.58537,0.14093
3231.52576,0.14082
3229.46616,0.14042
3227.40655,0.13969
3225.34694,0.13905
3223.28733,0.13890
3221.22772,0.13880
3219.16811,0.13838
3217.10850,0.13812
3215.04890,0.13815
3212.98929,0.13805
3210.92968,0.13777
3208.87007,0.13762
3206.81046,0.13744
3204.75085,0.13704
3202.69125,0.13656
3200.63164,0.13615
3198.57203,0.13588
3196.51242,0.13563
3194.45281,0.13511
3192.39320,0.13440
3190.33359,0.13396
3188.27399,0.13387
3186.21438,0.13378
3184.15477,0.13327
3182.09516,0.13249
3180.03555,0.13190
3177.97594,0.13129
3175.91633,0.13064
3173.85673,0.13039
3171.79712,0.13049
3169.73751,0.13032
3167.67790,0.12918
3165.61829,0.12777
3163.55868,0.12732
3161.49907,0.12752
3159.43947,0.12735
3157.37986,0.12649
3155.32025,0.12546
3153.26064,0.12499
3151.20103,0.12479
3149.14142,0.12429
3147.08182,0.12363
3145.02221,0.12291
3142.96260,0.12203
3140.90299,0.12135
3138.84338,0.12113
3136.78377,0.12111
3134.72416,0.12089
3132.66456,0.12042
3130.60495,0.11993
3128.54534,0.11948
3126.48573,0.11914
3124.42612,0.11874
3122.36651,0.11805
3120.30690,0.11740
3118.24730,0.11707
3116.18769,0.11680
3114.12808,0.11628
3112.06847,0.11586
3110.00886,0.11589
3107.94925,0.11605
3105.88965,0.11602
3103.83004,0.11569
3101.77043,0.11518
3099.71082,0.11465
3097.65121,0.11420
3095.59160,0.11401
3093.53199,0.11377
3091.47239,0.11327
3089.41278,0.11295
3087.35317,0.11293
3085.29356,0.11299
3083.23395,0.11292
3081.17434,0.11232
3079.11473,0.11155
3077.05513,0.11077
3074.99552,0.10987
3072.93591,0.10938
3070.87630,0.10910
3068.81669,0.10856
3066.75708,0.10815
3064.69747,0.10784
3062.63787,0.10733
3060.57826,0.10668
3058.51865,0.10598
3056.45904,0.10535
3054.39943,0.10482
3052.33982,0.10441
3050.28022,0.10401
3048.22061,0.10358
3046.16100,0.10290
3044.10139,0.10211
3042.04178,0.10161
3039.98217,0.10094
3037.92256,0.10008
3035.86296,0.09966
3033.80335,0.09945
3031.74374,0.09913
3029.68413,0.09867
3027.62452,0.09816
3025.56491,0.09791
3023.50530,0.09754
3021.44570,0.09669
3019.38609,0.09574
3017.32648,0.09492
3015.26687,0.09439
3013.20726,0.09426
3011.14765,0.09393
3009.08804,0.09304
3007.02844,0.09224
3004.96883,0.09190
3002.90922,0.09169
3000.84961,0.09150
2998.79000,0.09140
2996.73039,0.09132
2994.67079,0.09113
2992.61118,0.09078
2990.55157,0.09023
2988.49196,0.08966
2986.43235,0.08956
2984.37274,0.08979
2982.31313,0.08992
2980.25353,0.09005
2978.19392,0.09027
2976.13431,0.09050
2974.07470,0.09096
2972.01509,0.09177
2969.95548,0.09273
2967.89587,0.09370
2965.83627,0.09471
2963.77666,0.09593
2961.71705,0.09730
2959.65744,0.09839
2957.59783,0.09906
2955.53822,0.09941
2953.47861,0.09949
2951.41901,0.09947
2949.35940,0.09938
2947.29979,0.09952
2945.24018,0.10029
2943.18057,0.10154
2941.12096,0.10318
2939.06136,0.10521
2937.00175,0.10759
2934.94214,0.11080
2932.88253,0.11460
2930.82292,0.11864
2928.76331,0.12342
2926.70370,0.12935
2924.64410,0.13680
2922.58449,0.14626
2920.52488,0.15747
2918.46527,0.16799
2916.40566,0.17190
2914.34605,0.16467
2912.28644,0.15062
2910.22684,0.13850
2908.16723,0.13159
2906.10762,0.12803
2904.04801,0.12604
2901.98840,0.12508
2899.92879,0.12433
2897.86918,0.12347
2895.80958,0.12314
2893.74997,0.12332
2891.69036,0.12364
2889.63075,0.12387
2887.57114,0.12384
2885.51153,0.12396
2883.45193,0.12424
2881.39232,0.12432
2879.33271,0.12442
2877.27310,0.12458
2875.21349,0.12465
2873.15388,0.12506
2871.09427,0.12566
2869.03467,0.12597
2866.97506,0.12628
2864.91545,0.12661
2862.85584,0.12680
2860.79623,0.12723
2858.73662,0.12834
2856.67701,0.13055
2854.61741,0.13507
2852.55780,0.14371
2850.49819,0.15401
2848.43858,0.15629
2846.37897,0.14606
2844.31936,0.13165
2842.25975,0.12121
2840.20015,0.11533
2838.14054,0.11195
2836.08093,0.10963
2834.02132,0.10765
2831.96171,0.10593
2829.90210,0.10436
2827.84250,0.10285
2825.78289,0.10161
2823.72328,0.10071
2821.66367,0.10009
2819.60406,0.09952
2817.54445,0.09865
2815.48484,0.09754
2813.42524,0.09664
2811.36563,0.09612
2809.30602,0.09573
2807.24641,0.09522
2805.18680,0.09451
2803.12719,0.09375
2801.06758,0.09313
2799.00798,0.09258
2796.94837,0.09213
2794.88876,0.09173
2792.82915,0.09128
2790.76954,0.09083
2788.70993,0.09039
2786.65032,0.08989
2784.59072,0.08944
2782.53111,0.08913
2780.47150,0.08883
2778.41189,0.08843
2776.35228,0.08796
2774.29267,0.08753
2772.23307,0.08724
2770.17346,0.08696
2768.11385,0.08672
2766.05424,0.08662
2763.99463,0.08631
2761.93502,0.08560
2759.87541,0.08508
2757.81581,0.08513
2755.75620,0.08528
2753.69659,0.08502
2751.63698,0.08429
2749.57737,0.08369
2747.51776,0.08348
2745.45815,0.08338
2743.39855,0.08339
2741.33894,0.08337
2739.27933,0.08315
2737.21972,0.08291
2735.16011,0.08273
2733.10050,0.08243
2731.04089,0.08207
2728.98129,0.08182
2726.92168,0.08167
2724.86207,0.08155
2722.80246,0.08129
2720.74285,0.08108
2718.68324,0.08109
2716.62364,0.08101
2714.56403,0.08076
2712.50442,0.08061
2710.44481,0.08043
2708.38520,0.08002
2706.32559,0.07975
2704.26598,0.07971
2702.20638,0.07952
2700.14677,0.07909
2698.08716,0.07864
2696.02755,0.07842
2693.96794,0.07835
2691.90833,0.07817
2689.84872,0.07775
2687.78912,0.07733
2685.72951,0.07712
2683.66990,0.07701
2681.61029,0.07696
2679.55068,0.07679
2677.49107,0.07639
2675.43146,0.07608
2673.37186,0.07593
2671.31225,0.07579
2669.25264,0.07561
2667.19303,0.07533
2665.13342,0.07502
2663.07381,0.07483
2661.01421,0.07481
2658.95460,0.07484
2656.89499,0.07462
2654.83538,0.07409
2652.77577,0.07352
2650.71616,0.07321
2648.65655,0.07308
2646.59695,0.07285
2644.53734,0.07236
2642.47773,0.07179
2640.41812,0.07147
2638.35851,0.07144
2636.29890,0.07137
2634.23929,0.07113
2632.17969,0.07081
2630.12008,0.07041
2628.06047,0.06999
2626.00086,0.06952
2623.94125,0.06908
2621.88164,0.06886
2619.82203,0.06866
2617.76243,0.06830
2615.70282,0.06800
2613.64321,0.06780
2611.58360,0.06752
2609.52399,0.06728
2607.46438,0.06713
2605.40478,0.06685
2603.34517,0.06656
2601.28556,0.06635
2599.22595,0.06594
2597.16634,0.06545
2595.10673,0.06514
2593.04712,0.06515
2590.98752,0.06534
2588.92791,0.06510
2586.86830,0.06435
2584.80869,0.06348
2582.74908,0.06296
2580.68947,0.06305
2578.62986,0.06331
2576.57026,0.06351
2574.51065,0.06363
2572.45104,0.06347
2570.39143,0.06293
2568.33182,0.06219
2566.27221,0.06178
2564.21260,0.06187
2562.15300,0.06222
2560.09339,0.06248
2558.03378,0.06222
2555.97417,0.06161
2553.91456,0.06135
2551.85495,0.06151
2549.79535,0.06142
2547.73574,0.06079
2545.67613,0.06013
2543.61652,0.05987
2541.55691,0.05963
2539.49730,0.05928
2537.43769,0.05934
2535.37809,0.05943
2533.31848,0.05925
2531.25887,0.05908
2529.19926,0.05900
2527.13965,0.05916
2525.08004,0.05928
2523.02043,0.05902
2520.96083,0.05855
2518.90122,0.05814
2516.84161,0.05799
2514.78200,0.05785
2512.72239,0.05748
2510.66278,0.05723
2508.60317,0.05734
2506.54357,0.05759
2504.48396,0.05773
2502.42435,0.05775
2500.36474,0.05744
2498.30513,0.05682
2496.24552,0.05627
2494.18592,0.05579
2492.12631,0.05537
2490.06670,0.05525
2488.00709,0.05540
2485.94748,0.05549
2483.88787,0.05519
2481.82826,0.05467
2479.76866,0.05452
2477.70905,0.05470
2475.64944,0.05490
2473.58983,0.05514
2471.53022,0.05521
2469.47061,0.05503
2467.41100,0.05504
2465.35140,0.05506
2463.29179,0.05443
2461.23218,0.05360
2459.17257,0.05339
2457.11296,0.05357
2455.05335,0.05363
2452.99374,0.05359
2450.93414,0.05354
2448.87453,0.05337
2446.81492,0.05316
2444.75531,0.05302
2442.69570,0.05281
2440.63609,0.05259
2438.57649,0.05233
2436.51688,0.05195
2434.45727,0.05168
2432.39766,0.05137
2430.33805,0.05102
2428.27844,0.05103
2426.21883,0.05150
2424.15923,0.05184
2422.09962,0.05170
2420.04001,0.05160
2417.98040,0.05155
2415.92079,0.05142
2413.86118,0.05133
2411.80157,0.05125
2409.74197,0.05116
2407.68236,0.05095
2405.62275,0.05053
2403.56314,0.05028
2401.50353,0.05041
2399.44392,0.05053
2397.38431,0.05032
2395.32471,0.04999
2393.26510,0.04990
2391.20549,0.04990
2389.14588,0.04977
2387.08627,0.04978
2385.02666,0.05005
2382.96706,0.05029
2380.90745,0.05003
2378.84784,0.04944
2376.78823,0.04924
2374.72862,0.04937
2372.66901,0.04947
2370.60940,0.04978
2368.54980,0.04992
2366.49019,0.04946
2364.43058,0.04901
2362.37097,0.04896
2360.31136,0.04920
2358.25175,0.04913
2356.19214,0.04858
2354.13254,0.04853
2352.07293,0.04905
2350.01332,0.04928
2347.95371,0.04917
2345.89410,0.04878
2343.83449,0.04829
2341.77488,0.04813
2339.71528,0.04822
2337.65567,0.04830
2335.59606,0.04835
2333.53645,0.04844
2331.47684,0.04854
2329.41723,0.04895
2327.35763,0.04966
2325.29802,0.04986
2323.23841,0.04931
2321.17880,0.04873
2319.11919,0.04851
2317.05958,0.04823
2314.99997,0.04788
2312.94037,0.04771
2310.88076,0.04749
2308.82115,0.04712
2306.76154,0.04685
2304.70193,0.04658
2302.64232,0.04638
2300.58271,0.04647
2298.52311,0.04665
2296.46350,0.04671
2294.40389,0.04653
2292.34428,0.04615
2290.28467,0.04581
2288.22506,0.04577
2286.16545,0.04577
2284.10585,0.04528
2282.04624,0.04468
2279.98663,0.04467
2277.92702,0.04505
2275.86741,0.04517
2273.80780,0.04476
2271.74820,0.04397
2269.68859,0.04326
2267.62898,0.04291
2265.56937,0.04246
2263.50976,0.04154
2261.45015,0.04133
2259.39054,0.04252
2257.33094,0.04308
2255.27133,0.04206
2253.21172,0.04133
2251.15211,0.04142
2249.09250,0.04132
2247.03289,0.04116
2244.97328,0.04133
2242.91368,0.04131
2240.85407,0.04063
2238.79446,0.03980
2236.73485,0.03974
2234.67524,0.04039
2232.61563,0.04095
2230.55602,0.04141
2228.49642,0.04136
2226.43681,0.04021
2224.37720,0.03882
2222.31759,0.03806
2220.25798,0.03795
2218.19837,0.03806
2216.13877,0.03800
2214.07916,0.03732
2212.01955,0.03651
2209.95994,0.03685
2207.90033,0.03807
2205.84072,0.03880
2203.78111,0.03860
2201.72151,0.03777
2199.66190,0.03645
2197.60229,0.03543
2195.54268,0.03527
2193.48307,0.03583
2191.42346,0.03701
2189.36385,0.03783
2187.30425,0.03762
2185.24464,0.03689
2183.18503,0.03582
2181.12542,0.03507
2179.06581,0.03534
2177.00620,0.03559
2174.94659,0.03534
2172.88699,0.03530
2170.82738,0.03509
2168.76777,0.03416
2166.70816,0.03311
2164.64855,0.03309
2162.58894,0.03356
2160.52934,0.03179
2158.46973,0.02873
2156.41012,0.02780
2154.35051,0.02927
2152.29090,0.03193
2150.23129,0.03342
2148.17168,0.03333
2146.11208,0.03317
2144.05247,0.03296
2141.99286,0.03262
2139.93325,0.03261
2137.87364,0.03286
2135.81403,0.03339
2133.75442,0.03446
2131.69482,0.03550
2129.63521,0.03597
2127.57560,0.03640
2125.51599,0.03699
2123.45638,0.03720
2121.39677,0.03703
2119.33716,0.03731
2117.27756,0.03817
2115.21795,0.03840
2113.15834,0.03784
2111.09873,0.03800
2109.03912,0.03881
2106.97951,0.03867
2104.91991,0.03766
2102.86030,0.03710
2100.80069,0.03725
2098.74108,0.03738
2096.68147,0.03696
2094.62186,0.03630
2092.56225,0.03624
2090.50265,0.03657
2088.44304,0.03637
2086.38343,0.03609
2084.32382,0.03641
2082.26421,0.03716
2080.20460,0.03794
2078.14499,0.03790
2076.08539,0.03695
2074.02578,0.03611
2071.96617,0.03541
2069.90656,0.03461
2067.84695,0.03436
2065.78734,0.03444
2063.72773,0.03432
2061.66813,0.03440
2059.60852,0.03491
2057.54891,0.03519
2055.48930,0.03471
2053.42969,0.03377
2051.37008,0.03256
2049.31048,0.03100
2047.25087,0.02995
2045.19126,0.02991
2043.13165,0.03005
2041.07204,0.03029
2039.01243,0.03055
2036.95282,0.03000
2034.89322,0.02931
2032.83361,0.02886
2030.77400,0.02780
2028.71439,0.02677
2026.65478,0.02734
2024.59517,0.02894
2022.53556,0.02935
2020.47596,0.02828
2018.41635,0.02744
2016.35674,0.02796
2014.29713,0.02922
2012.23752,0.02975
2010.17791,0.02924
2008.11830,0.02856
2006.05870,0.02804
2003.99909,0.02760
2001.93948,0.02769
1999.87987,0.02807
1997.82026,0.02814
1995.76065,0.02830
1993.70105,0.02871
1991.64144,0.02904
1989.58183,0.02926
1987.52222,0.02906
1985.46261,0.02874
1983.40300,0.02890
1981.34339,0.02886
1979.28379,0.02757
1977.22418,0.02580
1975.16457,0.02543
1973.10496,0.02673
1971.04535,0.02827
1968.98574,0.02828
1966.92613,0.02708
1964.86653,0.02591
1962.80692,0.02515
1960.74731,0.02566
1958.68770,0.02743
1956.62809,0.02905
1954.56848,0.02957
1952.50887,0.02925
1950.44927,0.02919
1948.38966,0.02947
1946.33005,0.02932
1944.27044,0.02909
1942.21083,0.02938
1940.15122,0.02962
1938.09162,0.02950
1936.03201,0.02979
1933.97240,0.03047
1931.91279,0.03069
1929.85318,0.03054
1927.79357,0.03062
1925.73396,0.03076
1923.67436,0.03082
1921.61475,0.03110
1919.55514,0.03143
1917.49553,0.03162
1915.43592,0.03138
1913.37631,0.03094
1911.31670,0.03097
1909.25710,0.03135
1907.19749,0.03161
1905.13788,0.03142
1903.07827,0.03117
1901.01866,0.03131
1898.95905,0.03150
1896.89944,0.03145
1894.83984,0.03144
1892.78023,0.03154
1890.72062,0.03148
1888.66101,0.03125
1886.60140,0.03105
1884.54179,0.03103
1882.48219,0.03110
1880.42258,0.03108
1878.36297,0.03116
1876.30336,0.03150
1874.24375,0.03158
1872.18414,0.03120
1870.12453,0.03077
1868.06493,0.03072
1866.00532,0.03097
1863.94571,0.03122
1861.88610,0.03139
1859.82649,0.03127
1857.76688,0.03081
1855.70727,0.03058
1853.64767,0.03076
1851.58806,0.03089
1849.52845,0.03090
1847.46884,0.03109
1845.40923,0.03144
1843.34962,0.03140
1841.29002,0.03086
1839.23041,0.03039
1837.17080,0.03045
1835.11119,0.03093
1833.05158,0.03118
1830.99197,0.03104
1828.93236,0.03085
1826.87276,0.03077
1824.81315,0.03062
1822.75354,0.03052
1820.69393,0.03048
1818.63432,0.03037
1816.57471,0.03024
1814.51510,0.03016
1812.45550,0.03015
1810.39589,0.03034
1808.33628,0.03050
1806.27667,0.03045
1804.21706,0.03044
1802.15745,0.03056
1800.09784,0.03063
1798.03824,0.03058
1795.97863,0.03040
1793.91902,0.03012
1791.85941,0.03009
1789.79980,0.03026
1787.74019,0.03026
1785.68059,0.03014
1783.62098,0.03002
1781.56137,0.02998
1779.50176,0.03005
1777.44215,0.02999
1775.38254,0.02974
1773.32293,0.02964
1771.26333,0.02971
1769.20372,0.02960
1767.14411,0.02944
1765.08450,0.02949
1763.02489,0.02978
1760.96528,0.03000
1758.90567,0.02988
1756.84607,0.02974
1754.78646,0.02976
1752.72685,0.02979
1750.66724,0.02971
1748.60763,0.02957
1746.54802,0.02946
1744.48841,0.02946
1742.42881,0.02951
1740.36920,0.02943
1738.30959,0.02931
1736.24998,0.02933
1734.19037,0.02949
1732.13076,0.02954
1730.07116,0.02940
1728.01155,0.02924
1725.95194,0.02921
1723.89233,0.02933
1721.83272,0.02933
1719.77311,0.02926
1717.71350,0.02940
1715.65390,0.02953
1713.59429,0.02945
1711.53468,0.02937
1709.47507,0.02932
1707.41546,0.02941
1705.35585,0.02974
1703.29624,0.03002
1701.23664,0.03038
1699.17703,0.03093
1697.11742,0.03139
1695.05781,0.03199
1692.99820,0.03269
1690.93859,0.03341
1688.87898,0.03433
1686.81938,0.03543
1684.75977,0.03729
1682.70016,0.03971
1680.64055,0.04158
1678.58094,0.04333
1676.52133,0.04553
1674.46173,0.04829
1672.40212,0.05078
1670.34251,0.05322
1668.28290,0.05589
1666.22329,0.05802
1664.16368,0.06002
1662.10407,0.06224
1660.04447,0.06407
1657.98486,0.06536
1655.92525,0.06635
1653.86564,0.06745
1651.80603,0.06830
1649.74642,0.06831
1647.68681,0.06827
1645.62721,0.06812
1643.56760,0.06764
1641.50799,0.06712
1639.44838,0.06660
1637.38877,0.06609
1635.32916,0.06534
1633.26955,0.06427
1631.20995,0.06331
1629.15034,0.06252
1627.09073,0.06174
1625.03112,0.06092
1622.97151,0.06022
1620.91190,0.05978
1618.85230,0.05950
1616.79269,0.05930
1614.73308,0.05920
1612.67347,0.05920
1610.61386,0.05944
1608.55425,0.06004
1606.49464,0.06078
1604.43504,0.06155
1602.37543,0.06240
1600.31582,0.06322
1598.25621,0.06390
1596.19660,0.06447
1594.13699,0.06497
1592.07738,0.06548
1590.01778,0.06596
1587.95817,0.06620
1585.89856,0.06618
1583.83895,0.06617
1581.77934,0.06616
1579.71973,0.06597
1577.66012,0.06567
1575.60052,0.06531
1573.54091,0.06486
1571.48130,0.06441
1569.42169,0.06403
1567.36208,0.06376
1565.30247,0.06361
1563.24287,0.06336
1561.18326,0.06309
1559.12365,0.06307
1557.06404,0.06289
1555.00443,0.06239
1552.94482,0.06183
1550.88521,0.06118
1548.82561,0.06050
1546.76600,0.05994
1544.70639,0.05947
1542.64678,0.05893
1540.58717,0.05823
1538.52756,0.05721
1536.46795,0.05610
1534.40835,0.05499
1532.34874,0.05385
1530.28913,0.05285
1528.22952,0.05193
1526.16991,0.05095
1524.11030,0.04993
1522.05069,0.04876
1519.99109,0.04762
1517.93148,0.04673
1515.87187,0.04582
1513.81226,0.04487
1511.75265,0.04412
1509.69304,0.04366
1507.63344,0.04331
1505.57383,0.04266
1503.51422,0.04196
1501.45461,0.04146
1499.39500,0.04114
1497.33539,0.04091
1495.27578,0.04066
1493.21618,0.04045
1491.15657,0.04051
1489.09696,0.04080
1487.03735,0.04092
1484.97774,0.04086
1482.91813,0.04091
1480.85852,0.04123
1478.79892,0.04185
1476.73931,0.04304
1474.67970,0.04474
1472.62009,0.04600
1470.56048,0.04611
1468.50087,0.04612
1466.44126,0.04700
1464.38166,0.04855
1462.32205,0.04939
1460.26244,0.04921
1458.20283,0.04898
1456.14322,0.04898
1454.08361,0.04880
1452.02401,0.04868
1449.96440,0.04881
1447.90479,0.04902
1445.84518,0.04920
1443.78557,0.04945
1441.72596,0.04987
1439.66635,0.05041
1437.60675,0.05115
1435.54714,0.05208
1433.48753,0.05279
1431.42792,0.05336
1429.36831,0.05409
1427.30870,0.05491
1425.24909,0.05575
1423.18949,0.05652
1421.12988,0.05707
1419.07027,0.05733
1417.01066,0.05711
1414.95105,0.05657
1412.89144,0.05596
1410.83183,0.05529
1408.77223,0.05459
1406.71262,0.05387
1404.65301,0.05312
1402.59340,0.05246
1400.53379,0.05212
1398.47418,0.05228
1396.41458,0.05291
1394.35497,0.05397
1392.29536,0.05525
1390.23575,0.05666
1388.17614,0.05853
1386.11653,0.06074
1384.05692,0.06270
1381.99732,0.06441
1379.93771,0.06597
1377.87810,0.06727
1375.81849,0.06811
1373.75888,0.06825
1371.69927,0.06761
1369.63966,0.06644
1367.58006,0.06500
1365.52045,0.06340
1363.46084,0.06171
1361.40123,0.06008
1359.34162,0.05871
1357.28201,0.05761
1355.22240,0.05675
1353.16280,0.05615
1351.10319,0.05576
1349.04358,0.05546
1346.98397,0.05512
1344.92436,0.05475
1342.86475,0.05448
1340.80515,0.05438
1338.74554,0.05441
1336.68593,0.05459
1334.62632,0.05494
1332.56671,0.05540
1330.50710,0.05591
1328.44749,0.05647
1326.38789,0.05711
1324.32828,0.05780
1322.26867,0.05836
1320.20906,0.05871
1318.14945,0.05895
1316.08984,0.05907
1314.03023,0.05901
1311.97063,0.05882
1309.91102,0.05861
1307.85141,0.05834
1305.79180,0.05794
1303.73219,0.05746
1301.67258,0.05698
1299.61297,0.05637
1297.55337,0.05546
1295.49376,0.05429
1293.43415,0.05300
1291.37454,0.05172
1289.31493,0.05052
1287.25532,0.04944
1285.19572,0.04840
1283.13611,0.04735
1281.07650,0.04643
1279.01689,0.04573
1276.95728,0.04519
1274.89767,0.04476
1272.83806,0.04453
1270.77846,0.04448
1268.71885,0.04455
1266.65924,0.04469
1264.59963,0.04482
1262.54002,0.04480
1260.48041,0.04461
1258.42080,0.04433
1256.36120,0.04400
1254.30159,0.04366
1252.24198,0.04321
1250.18237,0.04250
1248.12276,0.04170
1246.06315,0.04099
1244.00354,0.04036
1241.94394,0.03979
1239.88433,0.03929
1237.82472,0.03881
1235.76511,0.03827
1233.70550,0.03774
1231.64589,0.03724
1229.58629,0.03675
1227.52668,0.03623
1225.46707,0.03571
1223.40746,0.03521
1221.34785,0.03462
1219.28824,0.03391
1217.22863,0.03323
1215.16903,0.03270
1213.10942,0.03224
1211.04981,0.03184
1208.99020,0.03167
1206.93059,0.03178
1204.87098,0.03192
1202.81137,0.03205
1200.75177,0.03224
1198.69216,0.03240
1196.63255,0.03233
1194.57294,0.03194
1192.51333,0.03137
1190.45372,0.03084
1188.39411,0.03043
1186.33451,0.03016
1184.27490,0.03006
1182.21529,0.03028
1180.15568,0.03095
1178.09607,0.03196
1176.03646,0.03328
1173.97686,0.03498
1171.91725,0.03705
1169.85764,0.03951
1167.79803,0.04242
1165.73842,0.04579
1163.67881,0.04949
1161.61920,0.05330
1159.55960,0.05704
1157.49999,0.06066
1155.44038,0.06387
1153.38077,0.06617
1151.32116,0.06727
1149.26155,0.06720
1147.20194,0.06607
1145.14234,0.06410
1143.08273,0.06168
1141.02312,0.05929
1138.96351,0.05734
1136.90390,0.05623
1134.84429,0.05609
1132.78468,0.05673
1130.72508,0.05786
1128.66547,0.05938
1126.60586,0.06124
1124.54625,0.06327
1122.48664,0.06541
1120.42703,0.06758
1118.36743,0.06968
1116.30782,0.07176
1114.24821,0.07383
1112.18860,0.07597
1110.12899,0.07839
1108.06938,0.08137
1106.00977,0.08499
1103.95017,0.08907
1101.89056,0.09341
1099.83095,0.09786
1097.77134,0.10216
1095.71173,0.10627
1093.65212,0.11015
1091.59251,0.11358
1089.53291,0.11658
1087.47330,0.11948
1085.41369,0.12242
1083.35408,0.12540
1081.29447,0.12834
1079.23486,0.13117
1077.17525,0.13372
1075.11565,0.13592
1073.05604,0.13784
1070.99643,0.13941
1068.93682,0.14060
1066.87721,0.14156
1064.81760,0.14238
1062.75800,0.14293
1060.69839,0.14303
1058.63878,0.14268
1056.57917,0.14192
1054.51956,0.14073
1052.45995,0.13919
1050.40034,0.13771
1048.34074,0.13678
1046.28113,0.13663
1044.22152,0.13719
1042.16191,0.13840
1040.10230,0.14023
1038.04269,0.14251
1035.98308,0.14501
1033.92348,0.14747
1031.86387,0.14968
1029.80426,0.15138
1027.74465,0.15237
1025.68504,0.15262
1023.62543,0.15227
1021.56582,0.15149
1019.50622,0.15032
1017.44661,0.14882
1015.38700,0.14729
1013.32739,0.14580
1011.26778,0.14416
1009.20817,0.14249
1007.14857,0.14083
1005.08896,0.13922
1003.02935,0.13785
1000.96974,0.13685
998.91013,0.13622
996.85052,0.13604
994.79091,0.13606
992.73131,0.13600
990.67170,0.13581
988.61209,0.13540
986.55248,0.13450
984.49287,0.13295
982.43326,0.13075
980.37365,0.12811
978.31405,0.12512
976.25444,0.12188
974.19483,0.11866
972.13522,0.11563
970.07561,0.11273
968.01600,0.10993
965.95639,0.10728
963.89679,0.10506
961.83718,0.10331
959.77757,0.10182
957.71796,0.10048
955.65835,0.09930
953.59874,0.09835
951.53914,0.09763
949.47953,0.09706
947.41992,0.09659
945.36031,0.09607
943.30070,0.09541
941.24109,0.09466
939.18148,0.09381
937.12188,0.09273
935.06227,0.09147
933.00266,0.09016
930.94305,0.08882
928.88344,0.08743
926.82383,0.08601
924.76422,0.08448
922.70462,0.08301
920.64501,0.08172
918.58540,0.08050
916.52579,0.07929
914.46618,0.07836
912.40657,0.07797
910.34696,0.07800
908.28736,0.07828
906.22775,0.07887
904.16814,0.07976
902.10853,0.08070
900.04892,0.08161
897.98931,0.08244
895.92971,0.08302
893.87010,0.08326
891.81049,0.08310
889.75088,0.08247
887.69127,0.08144
885.63166,0.07999
883.57205,0.07821
881.51245,0.07640
879.45284,0.07478
877.39323,0.07320
875.33362,0.07151
873.27401,0.06984
871.21440,0.06845
869.15479,0.06737
867.09519,0.06627
865.03558,0.06516
862.97597,0.06423
860.91636,0.06349
858.85675,0.06282
856.79714,0.06215
854.73753,0.06148
852.67793,0.06079
850.61832,0.06009
848.55871,0.05947
846.49910,0.05903
844.43949,0.05866
842.37988,0.05824
840.32028,0.05784
838.26067,0.05740
836.20106,0.05690
834.14145,0.05654
832.08184,0.05622
830.02223,0.05574
827.96262,0.05526
825.90302,0.05501
823.84341,0.05494
821.78380,0.05479
819.72419,0.05453
817.66458,0.05435
815.60497,0.05405
813.54536,0.05364
811.48576,0.05335
809.42615,0.05317
807.36654,0.05306
805.30693,0.05302
803.24732,0.05301
801.18771,0.05297
799.12810,0.05288
797.06850,0.05274
795.00889,0.05251
792.94928,0.05224
790.88967,0.05207
788.83006,0.05211
786.77045,0.05227
784.71085,0.05234
782.65124,0.05213
780.59163,0.05185
778.53202,0.05180
776.47241,0.05188
774.41280,0.05193
772.35319,0.05193
770.29359,0.05190
768.23398,0.05188
766.17437,0.05182
764.11476,0.05176
762.05515,0.05175
759.99554,0.05174
757.93593,0.05180
755.87633,0.05194
753.81672,0.05203
751.75711,0.05209
749.69750,0.05218
747.63789,0.05227
745.57828,0.05230
743.51867,0.05221
741.45907,0.05214
739.39946,0.05209
737.33985,0.05203
735.28024,0.05210
733.22063,0.05231
731.16102,0.05250
729.10142,0.05252
727.04181,0.05236
724.98220,0.05224
722.92259,0.05244
720.86298,0.05293
718.80337,0.05320
716.74376,0.05314
714.68416,0.05312
712.62455,0.05339
710.56494,0.05367
708.50533,0.05373
706.44572,0.05369
704.38611,0.05374
702.32650,0.05385
700.26690,0.05391
698.20729,0.05392
696.14768,0.05383
694.08807,0.05372
692.02846,0.05376
689.96885,0.05393
687.90924,0.05398
685.84964,0.05398
683.79003,0.05404
681.73042,0.05412
679.67081,0.05434
677.61120,0.05497
675.55159,0.05610
673.49199,0.05755
671.43238,0.05893
669.37277,0.06045
667.31316,0.06237
665.25355,0.06348
663.19394,0.06400
661.13433,0.06445
659.07473,0.06454
657.01512,0.06423
654.95551,0.06389
652.89590,0.06347
650.83629,0.06281
648.77668,0.06233
646.71707,0.06239
644.65747,0.06271
642.59786,0.06299
640.53825,0.06335
638.47864,0.06390
636.41903,0.06440
634.35942,0.06465
632.29981,0.06473
630.24021,0.06481
628.18060,0.06490
626.12099,0.06493
624.06138,0.06505
622.00177,0.06545
619.94216,0.06611
617.88256,0.06686
615.82295,0.06731
613.76334,0.06739
611.70373,0.06743
609.64412,0.06762
607.58451,0.06798
605.52490,0.06830
603.46530,0.06841
601.40569,0.06838
599.34608,0.06830
597.28647,0.06833
595.22686,0.06852
593.16725,0.06858
591.10764,0.06861
589.04804,0.06895
586.98843,0.06929
584.92882,0.06932
582.86921,0.06931
580.80960,0.06932
578.74999,0.06925
576.69039,0.06931
574.63078,0.06962
572.57117,0.07006
570.51156,0.07038
568.45195,0.07040
566.39234,0.07027
564.33273,0.07020
562.27313,0.07021
560.21352,0.07024
558.15391,0.07020
556.09430,0.07000
554.03469,0.06969
551.97508,0.06934
549.91547,0.06879
547.85587,0.06807
545.79626,0.06750
543.73665,0.06708
541.67704,0.06657
539.61743,0.06590
537.55782,0.06517
535.49821,0.06463
533.43861,0.06442
531.37900,0.06458
529.31939,0.06497
527.25978,0.06536
525.20017,0.06575
523.14056,0.06617
521.08096,0.06637
519.02135,0.06610
516.96174,0.06549
514.90213,0.06486
512.84252,0.06445
510.78291,0.06439
508.72330,0.06432
506.66370,0.06392
504.60409,0.06334
502.54448,0.06292
500.48487,0.06274
498.42526,0.06238
496.36565,0.06185
494.30604,0.06159
492.24644,0.06147
490.18683,0.06127
488.12722,0.06109
486.06761,0.06082
484.00800,0.06040
481.94839,0.06007
479.88878,0.05999
477.82918,0.05981
475.76957,0.05928
473.70996,0.05881
471.65035,0.05858
469.59074,0.05827
467.53113,0.05800
465.47153,0.05799
463.41192,0.05798
461.35231,0.05785
459.29270,0.05767
457.23309,0.05760
455.17348,0.05756
453.11387,0.05727
451.05427,0.05686
448.99466,0.05658
446.93505,0.05645
444.87544,0.05613
442.81583,0.05570
440.75622,0.05571
438.69661,0.05596
436.63701,0.05599
434.57740,0.05578
432.51779,0.05554
430.45818,0.05534
428.39857,0.05523
426.33896,0.05537
424.27935,0.05550
422.21975,0.05530
420.16014,0.05524
418.10053,0.05508
416.04092,0.05456
413.98131,0.05430
411.92170,0.05405
409.86210,0.05343
407.80249,0.05272
405.74288,0.05221
403.68327,0.05188
401.62366,0.05152
399.56405,0.05120
397.50444,0.05127
395.44484,0.05142
393.38523,0.05116
391.32562,0.05084
389.26601,0.05092
387.20640,0.05148
385.14679,0.05189
383.08718,0.05124
381.02758,0.05039
378.96797,0.05040
376.90836,0.05093
374.84875,0.05173
372.78914,0.05217
370.72953,0.05125
368.66992,0.04900
366.61032,0.04703
364.55071,0.04717
362.49110,0.04938
360.43149,0.05170
358.37188,0.05390
356.31227,0.05532
354.25267,0.05381
352.19306,0.05148
350.13345,0.04980
348.07384,0.04776
346.01423,0.04630
343.95462,0.04779
341.89501,0.05167
339.83541,0.05158
337.77580,0.04740
335.71619,0.04386
333.65658,0.04329
331.59697,0.04892
329.53736,0.05790
327.47775,0.06011
325.41815,0.05302
323.35854,0.04467
321.29893,0.04139
319.23932,0.04198
317.17971,0.04194
315.12010,0.04240
313.06049,0.03967
311.00089,0.03537
308.94128,0.03603
306.88167,0.03824
304.82206,0.03883
302.76245,0.04625
300.70284,0.05886
298.64324,0.05842
296.58363,0.05368
294.52402,0.03871
292.46441,0.01330
290.40480,-0.03659
288.34519,-0.05819
286.28558,0.01572
284.22598,0.03835
282.16637,0.05749
280.10676,0.02594
278.04715,0.05638
275.98754,0.09123
273.92793,0.00020
271.86832,-0.07072
269.80872,0.04196
267.74911,-0.05455
265.68950,-0.03790
263.62989,-0.02887
261.57028,-0.01392
259.51067,0.03756
257.45106,0.02206
255.39146,-0.01049
253.33185,-0.04973
251.27224,-0.01773
249.21263,0.11568
247.15302,0.13803
245.09341,0.03878
243.03381,0.00721
240.97420,0.07927
238.91459,0.06143
236.85498,0.01004
234.79537,-0.01580
232.73576,-0.00241
230.67615,-0.04586
228.61655,-0.09862
226.55694,-0.07593
224.49733,-0.06983
222.43772,-0.05718
220.37811,-0.05636
218.31850,0.09523
216.25889,0.07229
214.19929,0.03634
212.13968,0.02235
210.08007,0.02905
208.02046,0.06625
205.96085,0.00765
203.90124,-0.01782
201.84163,0.03875
199.78203,0.04340
197.72242,0.01624
195.66281,-0.01422
193.60320,0.03093
191.54359,0.06775
189.48398,0.04531
187.42438,0.00660
185.36477,-0.02437
183.30516,-0.01999
181.24555,0.04402
179.18594,0.03704
177.12633,0.00137
175.06672,-0.00328
173.00712,0.01765
170.94751,0.01115
168.88790,0.00405
166.82829,0.01938
164.76868,0.02927
162.70907,0.00484
160.64946,-0.04926
158.58986,-0.00948
156.53025,-0.00963
154.47064,-0.02623
152.41103,-0.02348
150.35142,-0.02362
148.29181,0.01198
146.23220,0.04010
144.17260,-0.03587
142.11299,-0.00737
140.05338,0.04293
137.99377,0.02502
135.93416,0.02511
133.87455,0.00048
131.81495,0.01736
129.75534,0.05562
127.69573,-0.01114
125.63612,-0.02599
123.57651,0.00703
121.51690,0.01808
119.45729,0.01668
117.39769,0.04681
115.33808,0.00566
113.27847,-0.02846
111.21886,-0.00439
109.15925,-0.02253
107.09964,-0.02196
105.04003,-0.01817
102.98043,-0.00637
100.92082,-0.00327
98.86121,-0.00257
96.80160,-0.00410
94.74199,0.00183
92.68238,-0.02683
90.62277,-0.01050
88.56317,0.01603
86.50356,0.01877
84.44395,-0.00490
82.38434,-0.02547
80.32473,-0.02179
78.26512,-0.00889
76.20552,0.01967
74.14591,0.05990
72.08630,0.02045
70.02669,0.02387
67.96708,0.02636
65.90747,0.00117
63.84786,-0.00048
61.78826,0.01226
59.72865,0.01848
57.66904,0.01140
55.60943,0.00275
53.54982,0.00250
51.49021,0.02057
49.43060,0.01191
47.37100,0.00291
45.31139,-0.00449
43.25178,-0.01298
41.19217,-0.01995
39.13256,-0.01672
37.07295,-0.01723
35.01334,-0.00514
32.95374,0.00495
30.89413,0.00149
28.83452,0.00177
26.77491,0.01217
24.71530,0.00024
22.65569,-0.00319
20.59609,0.00023
18.53648,0.00131
16.47687,-0.00422
14.41726,-0.00336
12.35765,-0.00191
10.29804,-0.00316
8.23843,0.00052
6.17883,0.00091
4.11922,0.00035
2.05961,0.00016
0.00000,-0.00000
