3997.70013,0.05079
3995.64052,0.05161
3993.58092,0.05164
3991.52131,0.05102
3989.46170,0.05074
3987.40209,0.05080
3985.34248,0.05072
3983.28287,0.05057
3981.22327,0.05064
3979.16366,0.05006
3977.10405,0.04902
3975.04444,0.04910
3972.98483,0.04984
3970.92522,0.04998
3968.86561,0.04977
3966.80601,0.04994
3964.74640,0.05010
3962.68679,0.04941
3960.62718,0.04870
3958.56757,0.04898
3956.50796,0.04968
3954.44835,0.05010
3952.38875,0.04998
3950.32914,0.04965
3948.26953,0.04940
3946.20992,0.04920
3944.15031,0.04888
3942.09070,0.04837
3940.03109,0.04826
3937.97149,0.04825
3935.91188,0.04804
3933.85227,0.04807
3931.79266,0.04836
3929.73305,0.04857
3927.67344,0.04845
3925.61384,0.04816
3923.55423,0.04802
3921.49462,0.04797
3919.43501,0.04764
3917.37540,0.04710
3915.31579,0.04670
3913.25618,0.04661
3911.19658,0.04650
3909.13697,0.04614
3907.07736,0.04582
3905.01775,0.04578
3902.95814,0.04602
3900.89853,0.04643
3898.83892,0.04684
3896.77932,0.04694
3894.71971,0.04662
3892.66010,0.04644
3890.60049,0.04661
3888.54088,0.04665
3886.48127,0.04665
3884.42166,0.04670
3882.36206,0.04649
3880.30245,0.04634
3878.24284,0.04641
3876.18323,0.04655
3874.12362,0.04661
3872.06401,0.04589
3870.00441,0.04447
3867.94480,0.04363
3865.88519,0.04375
3863.82558,0.04388
3861.76597,0.04349
3859.70636,0.04344
3857.64675,0.04409
3855.58715,0.04514
3853.52754,0.04624
3851.46793,0.04618
3849.40832,0.04536
3847.34871,0.04454
3845.28910,0.04393
3843.22949,0.04380
3841.16989,0.04381
3839.11028,0.04316
3837.05067,0.04248
3834.99106,0.04291
3832.93145,0.04343
3830.87184,0.04320
3828.81223,0.04288
3826.75263,0.04292
3824.69302,0.04306
3822.63341,0.04305
3820.57380,0.04268
3818.51419,0.04221
3816.45458,0.04255
3814.39498,0.04333
3812.33537,0.04335
3810.27576,0.04296
3808.21615,0.04265
3806.15654,0.04253
3804.09693,0.04225
3802.03732,0.04167
3799.97772,0.04150
3797.91811,0.04185
3795.85850,0.04211
3793.79889,0.04213
3791.73928,0.04208
3789.67967,0.04187
3787.62006,0.04173
3785.56046,0.04206
3783.50085,0.04196
3781.44124,0.04095
3779.38163,0.04029
3777.32202,0.04079
3775.26241,0.04135
3773.20280,0.04150
3771.14320,0.04191
3769.08359,0.04191
3767.02398,0.04093
3764.96437,0.04036
3762.90476,0.04025
3760.84515,0.03996
3758.78555,0.04030
3756.72594,0.04103
3754.66633,0.04123
3752.60672,0.04094
3750.54711,0.04024
3748.48750,0.03979
3746.42789,0.03920
3744.36829,0.03849
3742.30868,0.03882
3740.24907,0.03868
3738.18946,0.03784
3736.12985,0.03785
3734.07024,0.03867
3732.01063,0.03898
3729.95103,0.03900
3727.89142,0.03919
3725.83181,0.03889
3723.77220,0.03802
3721.71259,0.03757
3719.65298,0.03795
3717.59337,0.03873
3715.53377,0.03890
3713.47416,0.03837
3711.41455,0.03777
3709.35494,0.03734
3707.29533,0.03721
3705.23572,0.03739
3703.17612,0.03771
3701.11651,0.03777
3699.05690,0.03740
3696.99729,0.03710
3694.93768,0.03734
3692.87807,0.03760
3690.81846,0.03738
3688.75886,0.03701
3686.69925,0.03629
3684.63964,0.03546
3682.58003,0.03500
3680.52042,0.03475
3678.46081,0.03444
3676.40120,0.03398
3674.34160,0.03389
3672.28199,0.03440
3670.22238,0.03476
3668.16277,0.03459
3666.10316,0.03466
3664.04355,0.03515
3661.98394,0.03542
3659.92434,0.03510
3657.86473,0.03430
3655.80512,0.03382
3653.74551,0.03435
3651.68590,0.03518
3649.62629,0.03513
3647.56669,0.03445
3645.50708,0.03419
3643.44747,0.03408
3641.38786,0.03388
3639.32825,0.03381
3637.26864,0.03393
3635.20903,0.03372
3633.14943,0.03321
3631.08982,0.03326
3629.03021,0.03430
3626.97060,0.03518
3624.91099,0.03500
3622.85138,0.03434
3620.79177,0.03384
3618.73217,0.03365
3616.67256,0.03315
3614.61295,0.03246
3612.55334,0.03257
3610.49373,0.03319
3608.43412,0.03318
3606.37451,0.03297
3604.31491,0.03372
3602.25530,0.03520
3600.19569,0.03618
3598.13608,0.03598
3596.07647,0.03562
3594.01686,0.03595
3591.95726,0.03604
3589.89765,0.03597
3587.83804,0.03706
3585.77843,0.03847
3583.71882,0.03905
3581.65921,0.03970
3579.59960,0.04082
3577.54000,0.04191
3575.48039,0.04288
3573.42078,0.04437
3571.36117,0.04649
3569.30156,0.04857
3567.24195,0.05052
3565.18234,0.05234
3563.12274,0.05391
3561.06313,0.05528
3559.00352,0.05614
3556.94391,0.05692
3554.88430,0.05874
3552.82469,0.06198
3550.76508,0.06568
3548.70548,0.06952
3546.64587,0.07469
3544.58626,0.08124
3542.52665,0.08891
3540.46704,0.09916
3538.40743,0.11273
3536.34783,0.12952
3534.28822,0.14980
3532.22861,0.17443
3530.16900,0.20352
3528.10939,0.23479
3526.04978,0.26412
3523.99017,0.28754
3521.93057,0.30188
3519.87096,0.30585
3517.81135,0.30031
3515.75174,0.28678
3513.69213,0.26837
3511.63252,0.24858
3509.57291,0.22911
3507.51331,0.21148
3505.45370,0.19617
3503.39409,0.18267
3501.33448,0.17197
3499.27487,0.16431
3497.21526,0.15830
3495.15565,0.15364
3493.09605,0.15079
3491.03644,0.14927
3488.97683,0.14855
3486.91722,0.14869
3484.85761,0.14905
3482.79800,0.14950
3480.73840,0.15072
3478.67879,0.15225
3476.61918,0.15390
3474.55957,0.15618
3472.49996,0.15872
3470.44035,0.16079
3468.38074,0.16272
3466.32114,0.16504
3464.26153,0.16756
3462.20192,0.17047
3460.14231,0.17411
3458.08270,0.17789
3456.02309,0.18163
3453.96348,0.18587
3451.90388,0.19051
3449.84427,0.19535
3447.78466,0.20064
3445.72505,0.20645
3443.66544,0.21266
3441.60583,0.21952
3439.54622,0.22738
3437.48662,0.23613
3435.42701,0.24552
3433.36740,0.25535
3431.30779,0.26532
3429.24818,0.27533
3427.18857,0.28586
3425.12897,0.29651
3423.06936,0.30586
3421.00975,0.31362
3418.95014,0.32008
3416.89053,0.32471
3414.83092,0.32779
3412.77131,0.33040
3410.71171,0.33244
3408.65210,0.33364
3406.59249,0.33483
3404.53288,0.33621
3402.47327,0.33735
3400.41366,0.33862
3398.35405,0.34011
3396.29445,0.34094
3394.23484,0.34059
3392.17523,0.33918
3390.11562,0.33683
3388.05601,0.33382
3385.99640,0.33035
3383.93679,0.32680
3381.87719,0.32363
3379.81758,0.32040
3377.75797,0.31688
3375.69836,0.31380
3373.63875,0.31176
3371.57914,0.31032
3369.51954,0.30879
3367.45993,0.30739
3365.40032,0.30617
3363.34071,0.30479
3361.28110,0.30382
3359.22149,0.30363
3357.16188,0.30331
3355.10228,0.30225
3353.04267,0.30121
3350.98306,0.30047
3348.92345,0.29948
3346.86384,0.29856
3344.80423,0.29803
3342.74462,0.29721
3340.68502,0.29576
3338.62541,0.29404
3336.56580,0.29209
3334.50619,0.28966
3332.44658,0.28740
3330.38697,0.28581
3328.32736,0.28418
3326.26776,0.28209
3324.20815,0.27969
3322.14854,0.27711
3320.08893,0.27482
3318.02932,0.27286
3315.96971,0.27095
3313.91011,0.26887
3311.85050,0.26681
3309.79089,0.26521
3307.73128,0.26369
3305.67167,0.26163
3303.61206,0.25953
3301.55245,0.25794
3299.49285,0.25715
3297.43324,0.25677
3295.37363,0.25533
3293.31402,0.25263
3291.25441,0.25035
3289.19480,0.24928
3287.13519,0.24845
3285.07559,0.24741
3283.01598,0.24663
3280.95637,0.24590
3278.89676,0.24467
3276.83715,0.24322
3274.77754,0.24204
3272.71793,0.24113
3270.65833,0.24014
3268.59872,0.23880
3266.53911,0.23742
3264.47950,0.23642
3262.41989,0.23540
3260.36028,0.23434
3258.30068,0.23360
3256.24107,0.23264
3254.18146,0.23136
3252.12185,0.23005
3250.06224,0.22872
3248.00263,0.22782
3245.94302,0.22719
3243.88342,0.22639
3241.82381,0.22554
3239.76420,0.22480
3237.70459,0.22416
3235.64498,0.22353
3233.58537,0.22286
3231.52576,0.22226
3229.46616,0.22178
3227.40655,0.22122
3225.34694,0.22069
3223.28733,0.22046
3221.22772,0.22039
3219.16811,0.22021
3217.10850,0.21991
3215.04890,0.21951
3212.98929,0.21904
3210.92968,0.21849
3208.87007,0.21766
3206.81046,0.21696
3204.75085,0.21712
3202.69125,0.21782
3200.63164,0.21839
3198.57203,0.21868
3196.51242,0.21858
3194.45281,0.21809
3192.39320,0.21756
3190.33359,0.21752
3188.27399,0.21783
3186.21438,0.21780
3184.15477,0.21694
3182.09516,0.21559
3180.03555,0.21475
3177.97594,0.21456
3175.91633,0.21449
3173.85673,0.21413
3171.79712,0.21328
3169.73751,0.21223
3167.67790,0.21132
3165.61829,0.21051
3163.55868,0.20967
3161.49907,0.20843
3159.43947,0.20695
3157.37986,0.20560
3155.32025,0.20407
3153.26064,0.20270
3151.20103,0.20192
3149.14142,0.20127
3147.08182,0.20041
3145.02221,0.19900
3142.96260,0.19709
3140.90299,0.19551
3138.84338,0.19432
3136.78377,0.19284
3134.72416,0.19081
3132.66456,0.18869
3130.60495,0.18714
3128.54534,0.18597
3126.48573,0.18442
3124.42612,0.18258
3122.36651,0.18086
3120.30690,0.17893
3118.24730,0.17683
3116.18769,0.17501
3114.12808,0.17320
3112.06847,0.17091
3110.00886,0.16860
3107.94925,0.16709
3105.88965,0.16593
3103.83004,0.16452
3101.77043,0.16304
3099.71082,0.16146
3097.65121,0.15955
3095.59160,0.15758
3093.53199,0.15580
3091.47239,0.15421
3089.41278,0.15253
3087.35317,0.15051
3085.29356,0.14841
3083.23395,0.14632
3081.17434,0.14423
3079.11473,0.14240
3077.05513,0.14082
3074.99552,0.13923
3072.93591,0.13769
3070.87630,0.13621
3068.81669,0.13430
3066.75708,0.13213
3064.69747,0.13036
3062.63787,0.12887
3060.57826,0.12718
3058.51865,0.12520
3056.45904,0.12328
3054.39943,0.12179
3052.33982,0.12040
3050.28022,0.11890
3048.22061,0.11750
3046.16100,0.11619
3044.10139,0.11499
3042.04178,0.11378
3039.98217,0.11221
3037.92256,0.11059
3035.86296,0.10936
3033.80335,0.10812
3031.74374,0.10653
3029.68413,0.10509
3027.62452,0.10405
3025.56491,0.10309
3023.50530,0.10222
3021.44570,0.10216
3019.38609,0.10406
3017.32648,0.10843
3015.26687,0.11367
3013.20726,0.11573
3011.14765,0.11237
3009.08804,0.10659
3007.02844,0.10204
3004.96883,0.09896
3002.90922,0.09664
3000.84961,0.09529
2998.79000,0.09502
2996.73039,0.09617
2994.67079,0.09954
2992.61118,0.10434
2990.55157,0.10737
2988.49196,0.10570
2986.43235,0.10055
2984.37274,0.09560
2982.31313,0.09220
2980.25353,0.08991
2978.19392,0.08863
2976.13431,0.08815
2974.07470,0.08801
2972.01509,0.08834
2969.95548,0.08999
2967.89587,0.09406
2965.83627,0.10137
2963.77666,0.11147
2961.71705,0.12119
2959.65744,0.12627
2957.59783,0.12503
2955.53822,0.11941
2953.47861,0.11242
2951.41901,0.10613
2949.35940,0.10188
2947.29979,0.10060
2945.24018,0.10361
2943.18057,0.11249
2941.12096,0.12507
2939.06136,0.13431
2937.00175,0.13710
2934.94214,0.13728
2932.88253,0.13638
2930.82292,0.13239
2928.76331,0.12616
2926.70370,0.12054
2924.64410,0.11664
2922.58449,0.11391
2920.52488,0.11120
2918.46527,0.10790
2916.40566,0.10487
2914.34605,0.10371
2912.28644,0.10525
2910.22684,0.11001
2908.16723,0.11954
2906.10762,0.13495
2904.04801,0.15418
2901.98840,0.17123
2899.92879,0.17803
2897.86918,0.17119
2895.80958,0.15635
2893.74997,0.14217
2891.69036,0.13289
2889.63075,0.12774
2887.57114,0.12424
2885.51153,0.12094
2883.45193,0.11729
2881.39232,0.11340
2879.33271,0.10967
2877.27310,0.10604
2875.21349,0.10279
2873.15388,0.10024
2871.09427,0.09813
2869.03467,0.09650
2866.97506,0.09530
2864.91545,0.09413
2862.85584,0.09312
2860.79623,0.09239
2858.73662,0.09169
2856.67701,0.09064
2854.61741,0.08944
2852.55780,0.08867
2850.49819,0.08815
2848.43858,0.08745
2846.37897,0.08669
2844.31936,0.08596
2842.25975,0.08545
2840.20015,0.08544
2838.14054,0.08545
2836.08093,0.08497
2834.02132,0.08419
2831.96171,0.08344
2829.90210,0.08304
2827.84250,0.08301
2825.78289,0.08297
2823.72328,0.08279
2821.66367,0.08248
2819.60406,0.08210
2817.54445,0.08182
2815.48484,0.08157
2813.42524,0.08110
2811.36563,0.08045
2809.30602,0.07990
2807.24641,0.07948
2805.18680,0.07900
2803.12719,0.07839
2801.06758,0.07765
2799.00798,0.07683
2796.94837,0.07605
2794.88876,0.07548
2792.82915,0.07499
2790.76954,0.07434
2788.70993,0.07368
2786.65032,0.07317
2784.59072,0.07270
2782.53111,0.07231
2780.47150,0.07210
2778.41189,0.07184
2776.35228,0.07151
2774.29267,0.07132
2772.23307,0.07114
2770.17346,0.07077
2768.11385,0.07026
2766.05424,0.06981
2763.99463,0.06961
2761.93502,0.06963
2759.87541,0.06972
2757.81581,0.06978
2755.75620,0.06973
2753.69659,0.06966
2751.63698,0.06956
2749.57737,0.06932
2747.51776,0.06897
2745.45815,0.06865
2743.39855,0.06847
2741.33894,0.06845
2739.27933,0.06859
2737.21972,0.06869
2735.16011,0.06848
2733.10050,0.06820
2731.04089,0.06810
2728.98129,0.06813
2726.92168,0.06808
2724.86207,0.06767
2722.80246,0.06718
2720.74285,0.06691
2718.68324,0.06660
2716.62364,0.06608
2714.56403,0.06576
2712.50442,0.06571
2710.44481,0.06572
2708.38520,0.06579
2706.32559,0.06577
2704.26598,0.06563
2702.20638,0.06571
2700.14677,0.06597
2698.08716,0.06620
2696.02755,0.06641
2693.96794,0.06654
2691.90833,0.06650
2689.84872,0.06641
2687.78912,0.06649
2685.72951,0.06682
2683.66990,0.06715
2681.61029,0.06720
2679.55068,0.06706
2677.49107,0.06690
2675.43146,0.06673
2673.37186,0.06651
2671.31225,0.06622
2669.25264,0.06593
2667.19303,0.06582
2665.13342,0.06577
2663.07381,0.06548
2661.01421,0.06510
2658.95460,0.06492
2656.89499,0.06499
2654.83538,0.06512
2652.77577,0.06512
2650.71616,0.06496
2648.65655,0.06463
2646.59695,0.06419
2644.53734,0.06397
2642.47773,0.06410
2640.41812,0.06433
2638.35851,0.06426
2636.29890,0.06387
2634.23929,0.06339
2632.17969,0.06304
2630.12008,0.06283
2628.06047,0.06260
2626.00086,0.06222
2623.94125,0.06177
2621.88164,0.06136
2619.82203,0.06108
2617.76243,0.06102
2615.70282,0.06088
2613.64321,0.06033
2611.58360,0.05962
2609.52399,0.05915
2607.46438,0.05866
2605.40478,0.05806
2603.34517,0.05773
2601.28556,0.05751
2599.22595,0.05726
2597.16634,0.05694
2595.10673,0.05648
2593.04712,0.05611
2590.98752,0.05579
2588.92791,0.05539
2586.86830,0.05525
2584.80869,0.05539
2582.74908,0.05540
2580.68947,0.05546
2578.62986,0.05562
2576.57026,0.05566
2574.51065,0.05576
2572.45104,0.05572
2570.39143,0.05528
2568.33182,0.05505
2566.27221,0.05527
2564.21260,0.05530
2562.15300,0.05496
2560.09339,0.05442
2558.03378,0.05359
2555.97417,0.05282
2553.91456,0.05276
2551.85495,0.05322
2549.79535,0.05345
2547.73574,0.05323
2545.67613,0.05265
2543.61652,0.05179
2541.55691,0.05115
2539.49730,0.05118
2537.43769,0.05162
2535.37809,0.05189
2533.31848,0.05162
2531.25887,0.05113
2529.19926,0.05131
2527.13965,0.05208
2525.08004,0.05204
2523.02043,0.05123
2520.96083,0.05067
2518.90122,0.05017
2516.84161,0.04952
2514.78200,0.04916
2512.72239,0.04926
2510.66278,0.04948
2508.60317,0.04940
2506.54357,0.04927
2504.48396,0.04924
2502.42435,0.04883
2500.36474,0.04827
2498.30513,0.04823
2496.24552,0.04839
2494.18592,0.04830
2492.12631,0.04817
2490.06670,0.04821
2488.00709,0.04849
2485.94748,0.04860
2483.88787,0.04833
2481.82826,0.04803
2479.76866,0.04776
2477.70905,0.04776
2475.64944,0.04797
2473.58983,0.04794
2471.53022,0.04778
2469.47061,0.04760
2467.41100,0.04753
2465.35140,0.04773
2463.29179,0.04803
2461.23218,0.04814
2459.17257,0.04821
2457.11296,0.04839
2455.05335,0.04822
2452.99374,0.04756
2450.93414,0.04690
2448.87453,0.04658
2446.81492,0.04642
2444.75531,0.04621
2442.69570,0.04582
2440.63609,0.04541
2438.57649,0.04533
2436.51688,0.04520
2434.45727,0.04477
2432.39766,0.04445
2430.33805,0.04438
2428.27844,0.04447
2426.21883,0.04452
2424.15923,0.04429
2422.09962,0.04403
2420.04001,0.04389
2417.98040,0.04373
2415.92079,0.04366
2413.86118,0.04353
2411.80157,0.04300
2409.74197,0.04242
2407.68236,0.04220
2405.62275,0.04224
2403.56314,0.04225
2401.50353,0.04215
2399.44392,0.04211
2397.38431,0.04226
2395.32471,0.04238
2393.26510,0.04226
2391.20549,0.04214
2389.14588,0.04210
2387.08627,0.04190
2385.02666,0.04168
2382.96706,0.04166
2380.90745,0.04182
2378.84784,0.04206
2376.78823,0.04201
2374.72862,0.04145
2372.66901,0.04085
2370.60940,0.04065
2368.54980,0.04060
2366.49019,0.04060
2364.43058,0.04101
2362.37097,0.04146
2360.31136,0.04149
2358.25175,0.04135
2356.19214,0.04099
2354.13254,0.04072
2352.07293,0.04085
2350.01332,0.04073
2347.95371,0.04027
2345.89410,0.03997
2343.83449,0.03982
2341.77488,0.03969
2339.71528,0.03964
2337.65567,0.03969
2335.59606,0.03982
2333.53645,0.04007
2331.47684,0.04022
2329.41723,0.04043
2327.35763,0.04164
2325.29802,0.04300
2323.23841,0.04271
2321.17880,0.04134
2319.11919,0.04054
2317.05958,0.04034
2314.99997,0.04008
2312.94037,0.03977
2310.88076,0.03925
2308.82115,0.03851
2306.76154,0.03813
2304.70193,0.03805
2302.64232,0.03801
2300.58271,0.03808
2298.52311,0.03812
2296.46350,0.03808
2294.40389,0.03822
2292.34428,0.03864
2290.28467,0.03898
2288.22506,0.03896
2286.16545,0.03876
2284.10585,0.03844
2282.04624,0.03818
2279.98663,0.03805
2277.92702,0.03744
2275.86741,0.03645
2273.80780,0.03573
2271.74820,0.03527
2269.68859,0.03492
2267.62898,0.03467
2265.56937,0.03447
2263.50976,0.03444
2261.45015,0.03468
2259.39054,0.03467
2257.33094,0.03419
2255.27133,0.03384
2253.21172,0.03395
2251.15211,0.03395
2249.09250,0.03372
2247.03289,0.03347
2244.97328,0.03288
2242.91368,0.03236
2240.85407,0.03220
2238.79446,0.03181
2236.73485,0.03110
2234.67524,0.03060
2232.61563,0.03093
2230.55602,0.03198
2228.49642,0.03232
2226.43681,0.03203
2224.37720,0.03243
2222.31759,0.03270
2220.25798,0.03206
2218.19837,0.03076
2216.13877,0.02932
2214.07916,0.02904
2212.01955,0.02998
2209.95994,0.03104
2207.90033,0.03137
2205.84072,0.03064
2203.78111,0.02982
2201.72151,0.02972
2199.66190,0.02921
2197.60229,0.02779
2195.54268,0.02712
2193.48307,0.02767
2191.42346,0.02805
2189.36385,0.02792
2187.30425,0.02713
2185.24464,0.02595
2183.18503,0.02606
2181.12542,0.02744
2179.06581,0.02816
2177.00620,0.02780
2174.94659,0.02731
2172.88699,0.02722
2170.82738,0.02731
2168.76777,0.02714
2166.70816,0.02656
2164.64855,0.02589
2162.58894,0.02551
2160.52934,0.02419
2158.46973,0.02248
2156.41012,0.02257
2154.35051,0.02305
2152.29090,0.02325
2150.23129,0.02349
2148.17168,0.02363
2146.11208,0.02392
2144.05247,0.02400
2141.99286,0.02403
2139.93325,0.02466
2137.87364,0.02573
2135.81403,0.02639
2133.75442,0.02639
2131.69482,0.02605
2129.63521,0.02587
2127.57560,0.02667
2125.51599,0.02791
2123.45638,0.02844
2121.39677,0.02849
2119.33716,0.02885
2117.27756,0.02948
2115.21795,0.02990
2113.15834,0.03026
2111.09873,0.03032
2109.03912,0.02961
2106.97951,0.02889
2104.91991,0.02876
2102.86030,0.02902
2100.80069,0.02947
2098.74108,0.02957
2096.68147,0.02915
2094.62186,0.02844
2092.56225,0.02769
2090.50265,0.02761
2088.44304,0.02800
2086.38343,0.02805
2084.32382,0.02766
2082.26421,0.02736
2080.20460,0.02755
2078.14499,0.02781
2076.08539,0.02738
2074.02578,0.02636
2071.96617,0.02579
2069.90656,0.02586
2067.84695,0.02587
2065.78734,0.02555
2063.72773,0.02552
2061.66813,0.02625
2059.60852,0.02674
2057.54891,0.02657
2055.48930,0.02622
2053.42969,0.02598
2051.37008,0.02585
2049.31048,0.02575
2047.25087,0.02534
2045.19126,0.02413
2043.13165,0.02320
2041.07204,0.02322
2039.01243,0.02299
2036.95282,0.02235
2034.89322,0.02190
2032.83361,0.02164
2030.77400,0.02115
2028.71439,0.02031
2026.65478,0.02007
2024.59517,0.02071
2022.53556,0.02087
2020.47596,0.02011
2018.41635,0.01955
2016.35674,0.02002
2014.29713,0.02121
2012.23752,0.02190
2010.17791,0.02158
2008.11830,0.02114
2006.05870,0.02135
2003.99909,0.02155
2001.93948,0.02145
1999.87987,0.02171
1997.82026,0.02195
1995.76065,0.02201
1993.70105,0.02236
1991.64144,0.02312
1989.58183,0.02392
1987.52222,0.02384
1985.46261,0.02341
1983.40300,0.02365
1981.34339,0.02375
1979.28379,0.02224
1977.22418,0.01991
1975.16457,0.01900
1973.10496,0.01933
1971.04535,0.01922
1968.98574,0.01883
1966.92613,0.01951
1964.86653,0.02112
1962.80692,0.02235
1960.74731,0.02259
1958.68770,0.02243
1956.62809,0.02203
1954.56848,0.02121
1952.50887,0.02110
1950.44927,0.02198
1948.38966,0.02251
1946.33005,0.02235
1944.27044,0.02242
1942.21083,0.02271
1940.15122,0.02271
1938.09162,0.02273
1936.03201,0.02283
1933.97240,0.02299
1931.91279,0.02335
1929.85318,0.02340
1927.79357,0.02317
1925.73396,0.02342
1923.67436,0.02402
1921.61475,0.02425
1919.55514,0.02405
1917.49553,0.02392
1915.43592,0.02398
1913.37631,0.02422
1911.31670,0.02449
1909.25710,0.02455
1907.19749,0.02477
1905.13788,0.02532
1903.07827,0.02582
1901.01866,0.02593
1898.95905,0.02552
1896.89944,0.02504
1894.83984,0.02502
1892.78023,0.02515
1890.72062,0.02515
1888.66101,0.02511
1886.60140,0.02501
1884.54179,0.02504
1882.48219,0.02525
1880.42258,0.02538
1878.36297,0.02539
1876.30336,0.02519
1874.24375,0.02487
1872.18414,0.02483
1870.12453,0.02509
1868.06493,0.02534
1866.00532,0.02553
1863.94571,0.02566
1861.88610,0.02566
1859.82649,0.02561
1857.76688,0.02541
1855.70727,0.02516
1853.64767,0.02520
1851.58806,0.02550
1849.52845,0.02553
1847.46884,0.02523
1845.40923,0.02504
1843.34962,0.02512
1841.29002,0.02508
1839.23041,0.02494
1837.17080,0.02484
1835.11119,0.02478
1833.05158,0.02489
1830.99197,0.02500
1828.93236,0.02477
1826.87276,0.02447
1824.81315,0.02439
1822.75354,0.02431
1820.69393,0.02415
1818.63432,0.02386
1816.57471,0.02365
1814.51510,0.02376
1812.45550,0.02411
1810.39589,0.02455
1808.33628,0.02464
1806.27667,0.02442
1804.21706,0.02439
1802.15745,0.02462
1800.09784,0.02489
1798.03824,0.02503
1795.97863,0.02506
1793.91902,0.02517
1791.85941,0.02521
1789.79980,0.02485
1787.74019,0.02448
1785.68059,0.02437
1783.62098,0.02436
1781.56137,0.02443
1779.50176,0.02449
1777.44215,0.02437
1775.38254,0.02425
1773.32293,0.02430
1771.26333,0.02450
1769.20372,0.02460
1767.14411,0.02454
1765.08450,0.02449
1763.02489,0.02448
1760.96528,0.02435
1758.90567,0.02415
1756.84607,0.02407
1754.78646,0.02413
1752.72685,0.02421
1750.66724,0.02415
1748.60763,0.02390
1746.54802,0.02379
1744.48841,0.02401
1742.42881,0.02424
1740.36920,0.02415
1738.30959,0.02389
1736.24998,0.02379
1734.19037,0.02395
1732.13076,0.02399
1730.07116,0.02381
1728.01155,0.02368
1725.95194,0.02363
1723.89233,0.02356
1721.83272,0.02345
1719.77311,0.02341
1717.71350,0.02350
1715.65390,0.02358
1713.59429,0.02357
1711.53468,0.02356
1709.47507,0.02353
1707.41546,0.02349
1705.35585,0.02349
1703.29624,0.02353
1701.23664,0.02357
1699.17703,0.02363
1697.11742,0.02362
1695.05781,0.02356
1692.99820,0.02343
1690.93859,0.02332
1688.87898,0.02330
1686.81938,0.02330
1684.75977,0.02340
1682.70016,0.02340
1680.64055,0.02319
1678.58094,0.02301
1676.52133,0.02293
1674.46173,0.02291
1672.40212,0.02291
1670.34251,0.02297
1668.28290,0.02310
1666.22329,0.02313
1664.16368,0.02307
1662.10407,0.02304
1660.04447,0.02308
1657.98486,0.02316
1655.92525,0.02327
1653.86564,0.02335
1651.80603,0.02327
1649.74642,0.02310
1647.68681,0.02294
1645.62721,0.02276
1643.56760,0.02261
1641.50799,0.02258
1639.44838,0.02259
1637.38877,0.02244
1635.32916,0.02223
1633.26955,0.02215
1631.20995,0.02208
1629.15034,0.02204
1627.09073,0.02208
1625.03112,0.02212
1622.97151,0.02201
1620.91190,0.02170
1618.85230,0.02145
1616.79269,0.02150
1614.73308,0.02174
1612.67347,0.02182
1610.61386,0.02173
1608.55425,0.02163
1606.49464,0.02158
1604.43504,0.02155
1602.37543,0.02147
1600.31582,0.02131
1598.25621,0.02127
1596.19660,0.02141
1594.13699,0.02150
1592.07738,0.02151
1590.01778,0.02150
1587.95817,0.02143
1585.89856,0.02131
1583.83895,0.02131
1581.77934,0.02138
1579.71973,0.02133
1577.66012,0.02114
1575.60052,0.02107
1573.54091,0.02118
1571.48130,0.02118
1569.42169,0.02099
1567.36208,0.02082
1565.30247,0.02086
1563.24287,0.02096
1561.18326,0.02096
1559.12365,0.02093
1557.06404,0.02088
1555.00443,0.02083
1552.94482,0.02084
1550.88521,0.02073
1548.82561,0.02061
1546.76600,0.02074
1544.70639,0.02092
1542.64678,0.02101
1540.58717,0.02116
1538.52756,0.02133
1536.46795,0.02140
1534.40835,0.02150
1532.34874,0.02162
1530.28913,0.02163
1528.22952,0.02160
1526.16991,0.02170
1524.11030,0.02198
1522.05069,0.02228
1519.99109,0.02236
1517.93148,0.02234
1515.87187,0.02248
1513.81226,0.02270
1511.75265,0.02291
1509.69304,0.02307
1507.63344,0.02320
1505.57383,0.02335
1503.51422,0.02351
1501.45461,0.02369
1499.39500,0.02388
1497.33539,0.02400
1495.27578,0.02420
1493.21618,0.02446
1491.15657,0.02472
1489.09696,0.02501
1487.03735,0.02527
1484.97774,0.02554
1482.91813,0.02597
1480.85852,0.02670
1478.79892,0.02786
1476.73931,0.02998
1474.67970,0.03456
1472.62009,0.04359
1470.56048,0.05289
1468.50087,0.05503
1466.44126,0.04954
1464.38166,0.04151
1462.32205,0.03748
1460.26244,0.03747
1458.20283,0.04089
1456.14322,0.04866
1454.08361,0.05563
1452.02401,0.05769
1449.96440,0.05477
1447.90479,0.04985
1445.84518,0.04695
1443.78557,0.04713
1441.72596,0.04953
1439.66635,0.05340
1437.60675,0.05948
1435.54714,0.06812
1433.48753,0.07646
1431.42792,0.08386
1429.36831,0.08966
1427.30870,0.09157
1425.24909,0.08913
1423.18949,0.08377
1421.12988,0.07783
1419.07027,0.07235
1417.01066,0.06841
1414.95105,0.06644
1412.89144,0.06584
1410.83183,0.06660
1408.77223,0.06905
1406.71262,0.07354
1404.65301,0.08019
1402.59340,0.08771
1400.53379,0.09470
1398.47418,0.10011
1396.41458,0.10205
1394.35497,0.09990
1392.29536,0.09493
1390.23575,0.08878
1388.17614,0.08192
1386.11653,0.07499
1384.05692,0.06899
1381.99732,0.06401
1379.93771,0.06025
1377.87810,0.05844
1375.81849,0.05923
1373.75888,0.06167
1371.69927,0.06176
1369.63966,0.05678
1367.58006,0.04926
1365.52045,0.04380
1363.46084,0.04195
1361.40123,0.04311
1359.34162,0.04658
1357.28201,0.05206
1355.22240,0.05954
1353.16280,0.06870
1351.10319,0.07898
1349.04358,0.09002
1346.98397,0.10166
1344.92436,0.11397
1342.86475,0.12697
1340.80515,0.14016
1338.74554,0.15249
1336.68593,0.16364
1334.62632,0.17280
1332.56671,0.17469
1330.50710,0.16464
1328.44749,0.14606
1326.38789,0.12599
1324.32828,0.10855
1322.26867,0.09461
1320.20906,0.08359
1318.14945,0.07501
1316.08984,0.06869
1314.03023,0.06413
1311.97063,0.06078
1309.91102,0.05827
1307.85141,0.05640
1305.79180,0.05528
1303.73219,0.05505
1301.67258,0.05569
1299.61297,0.05672
1297.55337,0.05719
1295.49376,0.05646
1293.43415,0.05451
1291.37454,0.05184
1289.31493,0.04918
1287.25532,0.04707
1285.19572,0.04572
1283.13611,0.04545
1281.07650,0.04671
1279.01689,0.04940
1276.95728,0.05250
1274.89767,0.05462
1272.83806,0.05570
1270.77846,0.05881
1268.71885,0.06837
1266.65924,0.08183
1264.59963,0.08723
1262.54002,0.07905
1260.48041,0.06684
1258.42080,0.06019
1256.36120,0.05984
1254.30159,0.06272
1252.24198,0.06596
1250.18237,0.06724
1248.12276,0.06541
1246.06315,0.06123
1244.00354,0.05660
1241.94394,0.05295
1239.88433,0.05062
1237.82472,0.04958
1235.76511,0.04976
1233.70550,0.05034
1231.64589,0.04986
1229.58629,0.04766
1227.52668,0.04445
1225.46707,0.04134
1223.40746,0.03889
1221.34785,0.03692
1219.28824,0.03510
1217.22863,0.03334
1215.16903,0.03164
1213.10942,0.03005
1211.04981,0.02872
1208.99020,0.02774
1206.93059,0.02698
1204.87098,0.02639
1202.81137,0.02596
1200.75177,0.02570
1198.69216,0.02568
1196.63255,0.02589
1194.57294,0.02641
1192.51333,0.02748
1190.45372,0.02920
1188.39411,0.03174
1186.33451,0.03553
1184.27490,0.04122
1182.21529,0.04946
1180.15568,0.06005
1178.09607,0.07062
1176.03646,0.07667
1173.97686,0.07509
1171.91725,0.06766
1169.85764,0.05907
1167.79803,0.05275
1165.73842,0.04986
1163.67881,0.05042
1161.61920,0.05436
1159.55960,0.06217
1157.49999,0.07477
1155.44038,0.09243
1153.38077,0.11352
1151.32116,0.13400
1149.26155,0.14856
1147.20194,0.15309
1145.14234,0.14695
1143.08273,0.13398
1141.02312,0.12114
1138.96351,0.11398
1136.90390,0.11284
1134.84429,0.11372
1132.78468,0.11243
1130.72508,0.10766
1128.66547,0.10041
1126.60586,0.09212
1124.54625,0.08363
1122.48664,0.07540
1120.42703,0.06790
1118.36743,0.06148
1116.30782,0.05611
1114.24821,0.05183
1112.18860,0.04863
1110.12899,0.04643
1108.06938,0.04534
1106.00977,0.04590
1103.95017,0.04930
1101.89056,0.05782
1099.83095,0.07469
1097.77134,0.10120
1095.71173,0.13058
1093.65212,0.14722
1091.59251,0.14330
1089.53291,0.12995
1087.47330,0.12093
1085.41369,0.12246
1083.35408,0.13777
1081.29447,0.16504
1079.23486,0.19375
1077.17525,0.21140
1075.11565,0.21161
1073.05604,0.19611
1070.99643,0.17552
1068.93682,0.16257
1066.87721,0.16221
1064.81760,0.17055
1062.75800,0.18065
1060.69839,0.18911
1058.63878,0.19774
1056.57917,0.20930
1054.51956,0.22400
1052.45995,0.23919
1050.40034,0.25072
1048.34074,0.25495
1046.28113,0.25085
1044.22152,0.24040
1042.16191,0.22659
1040.10230,0.21175
1038.04269,0.19771
1035.98308,0.18644
1033.92348,0.17938
1031.86387,0.17625
1029.80426,0.17453
1027.74465,0.17108
1025.68504,0.16459
1023.62543,0.15586
1021.56582,0.14626
1019.50622,0.13662
1017.44661,0.12738
1015.38700,0.11876
1013.32739,0.11070
1011.26778,0.10307
1009.20817,0.09585
1007.14857,0.08894
1005.08896,0.08230
1003.02935,0.07596
1000.96974,0.06990
998.91013,0.06418
996.85052,0.05898
994.79091,0.05458
992.73131,0.05118
990.67170,0.04925
988.61209,0.04988
986.55248,0.05522
984.49287,0.06965
982.43326,0.09893
980.37365,0.14275
978.31405,0.18548
976.25444,0.20506
974.19483,0.19815
972.13522,0.17917
970.07561,0.15948
968.01600,0.14247
965.95639,0.12836
963.89679,0.11678
961.83718,0.10726
959.77757,0.09931
957.71796,0.09249
955.65835,0.08656
953.59874,0.08141
951.53914,0.07692
949.47953,0.07301
947.41992,0.06959
945.36031,0.06654
943.30070,0.06386
941.24109,0.06146
939.18148,0.05932
937.12188,0.05754
935.06227,0.05631
933.00266,0.05610
930.94305,0.05822
928.88344,0.06500
926.82383,0.07700
924.76422,0.08864
922.70462,0.09091
920.64501,0.08247
918.58540,0.07093
916.52579,0.06203
914.46618,0.05614
912.40657,0.05227
910.34696,0.04965
908.28736,0.04773
906.22775,0.04632
904.16814,0.04526
902.10853,0.04433
900.04892,0.04356
897.98931,0.04300
895.92971,0.04256
893.87010,0.04231
891.81049,0.04246
889.75088,0.04296
887.69127,0.04375
885.63166,0.04531
883.57205,0.04848
881.51245,0.05405
879.45284,0.06289
877.39323,0.07458
875.33362,0.08467
873.27401,0.08715
871.21440,0.08335
869.15479,0.08068
867.09519,0.08097
865.03558,0.07958
862.97597,0.07414
860.91636,0.06692
858.85675,0.06044
856.79714,0.05546
854.73753,0.05173
852.67793,0.04885
850.61832,0.04682
848.55871,0.04559
846.49910,0.04481
844.43949,0.04427
842.37988,0.04409
840.32028,0.04448
838.26067,0.04543
836.20106,0.04681
834.14145,0.04877
832.08184,0.05150
830.02223,0.05492
827.96262,0.05893
825.90302,0.06367
823.84341,0.07000
821.78380,0.07876
819.72419,0.08758
817.66458,0.09115
815.60497,0.08740
813.54536,0.07979
811.48576,0.07239
809.42615,0.06676
807.36654,0.06296
805.30693,0.06051
803.24732,0.05908
801.18771,0.05871
799.12810,0.05933
797.06850,0.06092
795.00889,0.06393
792.94928,0.06913
790.88967,0.07763
788.83006,0.09099
786.77045,0.11014
784.71085,0.13254
782.65124,0.15004
780.59163,0.15377
778.53202,0.14391
776.47241,0.12808
774.41280,0.11251
772.35319,0.09953
770.29359,0.08941
768.23398,0.08176
766.17437,0.07608
764.11476,0.07175
762.05515,0.06831
759.99554,0.06560
757.93593,0.06349
755.87633,0.06176
753.81672,0.06037
751.75711,0.05933
749.69750,0.05856
747.63789,0.05789
745.57828,0.05724
743.51867,0.05669
741.45907,0.05625
739.39946,0.05573
737.33985,0.05531
735.28024,0.05516
733.22063,0.05508
731.16102,0.05496
729.10142,0.05496
727.04181,0.05516
724.98220,0.05544
722.92259,0.05580
720.86298,0.05634
718.80337,0.05701
716.74376,0.05785
714.68416,0.05886
712.62455,0.05991
710.56494,0.06102
708.50533,0.06233
706.44572,0.06378
704.38611,0.06515
702.32650,0.06632
700.26690,0.06750
698.20729,0.06885
696.14768,0.07015
694.08807,0.07124
692.02846,0.07225
689.96885,0.07298
687.90924,0.07344
685.84964,0.07391
683.79003,0.07432
681.73042,0.07444
679.67081,0.07419
677.61120,0.07365
675.55159,0.07294
673.49199,0.07215
671.43238,0.07137
669.37277,0.07044
667.31316,0.06920
665.25355,0.06801
663.19394,0.06679
661.13433,0.06542
659.07473,0.06407
657.01512,0.06278
654.95551,0.06140
652.89590,0.05993
650.83629,0.05852
648.77668,0.05718
646.71707,0.05596
644.65747,0.05507
642.59786,0.05463
640.53825,0.05470
638.47864,0.05572
636.41903,0.05873
634.35942,0.06542
632.29981,0.07728
630.24021,0.09405
628.18060,0.11077
626.12099,0.11900
624.06138,0.11565
622.00177,0.10577
619.94216,0.09528
617.88256,0.08712
615.82295,0.08169
613.76334,0.07817
611.70373,0.07575
609.64412,0.07407
607.58451,0.07312
605.52490,0.07335
603.46530,0.07562
601.40569,0.08012
599.34608,0.08506
597.28647,0.08820
595.22686,0.08925
593.16725,0.08949
591.10764,0.08969
589.04804,0.08980
586.98843,0.08993
584.92882,0.09053
582.86921,0.09176
580.80960,0.09332
578.74999,0.09496
576.69039,0.09676
574.63078,0.09860
572.57117,0.10020
570.51156,0.10153
568.45195,0.10236
566.39234,0.10255
564.33273,0.10242
562.27313,0.10231
560.21352,0.10244
558.15391,0.10266
556.09430,0.10265
554.03469,0.10266
551.97508,0.10299
549.91547,0.10341
547.85587,0.10375
545.79626,0.10407
543.73665,0.10450
541.67704,0.10515
539.61743,0.10574
537.55782,0.10589
535.49821,0.10574
533.43861,0.10550
531.37900,0.10474
529.31939,0.10368
527.25978,0.10348
525.20017,0.10437
523.14056,0.10523
521.08096,0.10523
519.02135,0.10429
516.96174,0.10271
514.90213,0.10099
512.84252,0.09937
510.78291,0.09781
508.72330,0.09635
506.66370,0.09482
504.60409,0.09295
502.54448,0.09089
500.48487,0.08907
498.42526,0.08748
496.36565,0.08579
494.30604,0.08394
492.24644,0.08207
490.18683,0.08021
488.12722,0.07833
486.06761,0.07638
484.00800,0.07436
481.94839,0.07245
479.88878,0.07070
477.82918,0.06921
475.76957,0.06848
473.70996,0.06921
471.65035,0.07169
469.59074,0.07471
467.53113,0.07639
465.47153,0.07591
463.41192,0.07388
461.35231,0.07129
459.29270,0.06830
457.23309,0.06515
455.17348,0.06289
453.11387,0.06146
451.05427,0.06010
448.99466,0.05870
446.93505,0.05740
444.87544,0.05605
442.81583,0.05500
440.75622,0.05490
438.69661,0.05517
436.63701,0.05480
434.57740,0.05327
432.51779,0.05139
430.45818,0.05121
428.39857,0.05377
426.33896,0.05735
424.27935,0.05877
422.21975,0.05713
420.16014,0.05471
418.10053,0.05363
416.04092,0.05474
413.98131,0.05767
411.92170,0.06113
409.86210,0.06349
407.80249,0.06485
405.74288,0.06587
403.68327,0.06633
401.62366,0.06571
399.56405,0.06326
397.50444,0.05906
395.44484,0.05610
393.38523,0.05635
391.32562,0.05941
389.26601,0.06462
387.20640,0.06995
385.14679,0.07313
383.08718,0.07452
381.02758,0.07518
378.96797,0.07514
376.90836,0.07492
374.84875,0.07482
372.78914,0.07355
370.72953,0.07113
368.66992,0.06838
366.61032,0.06530
364.55071,0.06248
362.49110,0.06123
360.43149,0.06085
358.37188,0.05950
356.31227,0.05670
354.25267,0.05393
352.19306,0.05244
350.13345,0.04961
348.07384,0.04547
346.01423,0.04330
343.95462,0.04288
341.89501,0.04304
339.83541,0.04270
337.77580,0.04248
335.71619,0.04502
333.65658,0.04950
331.59697,0.05339
329.53736,0.05946
327.47775,0.06802
325.41815,0.07416
323.35854,0.07801
321.29893,0.08037
319.23932,0.08496
317.17971,0.09197
315.12010,0.09559
313.06049,0.09455
311.00089,0.09240
308.94128,0.09272
306.88167,0.09627
304.82206,0.09404
302.76245,0.06148
300.70284,0.02604
298.64324,0.02653
296.58363,0.02452
294.52402,0.01145
292.46441,0.02057
290.40480,0.03007
288.34519,-0.02177
286.28558,-0.04670
284.22598,-0.05262
282.16637,0.02265
280.10676,0.09080
278.04715,0.08161
275.98754,0.07355
273.92793,-0.01897
271.86832,0.12685
269.80872,0.01224
267.74911,-0.03186
265.68950,-0.00444
263.62989,-0.01875
261.57028,-0.08499
259.51067,-0.02941
257.45106,0.04069
255.39146,0.02818
253.33185,-0.06444
251.27224,-0.03668
249.21263,0.01831
247.15302,0.01098
245.09341,-0.11549
243.03381,-0.10364
240.97420,-0.09481
238.91459,-0.08147
236.85498,0.05832
234.79537,0.08579
232.73576,0.04802
230.67615,0.00998
228.61655,0.08249
226.55694,0.01800
224.49733,-0.04151
222.43772,-0.02802
220.37811,-0.04721
218.31850,0.05827
216.25889,0.15169
214.19929,0.04166
212.13968,-0.02734
210.08007,-0.03594
208.02046,-0.00463
205.96085,0.03606
203.90124,0.02380
201.84163,0.03772
199.78203,0.04491
197.72242,0.04081
195.66281,0.05706
193.60320,0.09853
191.54359,0.06265
189.48398,0.05220
187.42438,0.05844
185.36477,-0.00200
183.30516,-0.00253
181.24555,0.01601
179.18594,-0.01023
177.12633,-0.00861
175.06672,0.05855
173.00712,0.02556
170.94751,0.09669
168.88790,0.01752
166.82829,-0.00641
164.76868,0.02025
162.70907,-0.01570
160.64946,-0.04222
158.58986,0.01986
156.53025,0.01716
154.47064,-0.01631
152.41103,0.01355
150.35142,-0.03224
148.29181,-0.04796
146.23220,-0.01828
144.17260,-0.02374
142.11299,0.01728
140.05338,-0.02045
137.99377,-0.03836
135.93416,-0.04429
133.87455,-0.03200
131.81495,0.01017
129.75534,-0.00841
127.69573,0.01239
125.63612,0.01411
123.57651,0.02178
121.51690,0.01513
119.45729,-0.02048
117.39769,-0.02732
115.33808,0.02821
113.27847,0.01518
111.21886,0.03324
109.15925,0.06087
107.09964,0.04419
105.04003,0.01915
102.98043,0.01980
100.92082,0.02834
98.86121,0.00567
96.80160,0.01453
94.74199,0.00050
92.68238,-0.02625
90.62277,-0.04433
88.56317,-0.00701
86.50356,-0.01217
84.44395,0.00335
82.38434,0.03623
80.32473,0.02154
78.26512,-0.02103
76.20552,-0.02198
74.14591,-0.00089
72.08630,-0.00866
70.02669,0.02496
67.96708,0.02821
65.90747,-0.00372
63.84786,-0.03359
61.78826,-0.00895
59.72865,-0.01809
57.66904,-0.00084
55.60943,0.00891
53.54982,0.00220
51.49021,0.00867
49.43060,0.02014
47.37100,0.02335
45.31139,0.02687
43.25178,0.00873
41.19217,0.00392
39.13256,0.00123
37.07295,-0.00083
35.01334,-0.00705
32.95374,0.00723
30.89413,-0.00025
28.83452,-0.01112
26.77491,-0.00890
24.71530,-0.00607
22.65569,-0.00111
20.59609,-0.00163
18.53648,-0.00123
16.47687,0.00201
14.41726,0.00300
12.35765,-0.00437
10.29804,-0.00261
8.23843,0.00066
6.17883,0.00046
4.11922,0.00019
2.05961,0.00008
0.00000,-0.00000
