3997.70013,0.04261
3995.64052,0.04289
3993.58092,0.04352
3991.52131,0.04343
3989.46170,0.04295
3987.40209,0.04283
3985.34248,0.04328
3983.28287,0.04383
3981.22327,0.04376
3979.16366,0.04313
3977.10405,0.04229
3975.04444,0.04189
3972.98483,0.04230
3970.92522,0.04262
3968.86561,0.04254
3966.80601,0.04260
3964.74640,0.04224
3962.68679,0.04116
3960.62718,0.04062
3958.56757,0.04115
3956.50796,0.04188
3954.44835,0.04184
3952.38875,0.04095
3950.32914,0.04038
3948.26953,0.04051
3946.20992,0.04034
3944.15031,0.04032
3942.09070,0.04117
3940.03109,0.04193
3937.97149,0.04207
3935.91188,0.04189
3933.85227,0.04139
3931.79266,0.04067
3929.73305,0.04015
3927.67344,0.03983
3925.61384,0.03980
3923.55423,0.04026
3921.49462,0.04068
3919.43501,0.04051
3917.37540,0.04008
3915.31579,0.03995
3913.25618,0.03947
3911.19658,0.03845
3909.13697,0.03807
3907.07736,0.03855
3905.01775,0.03904
3902.95814,0.03907
3900.89853,0.03899
3898.83892,0.03907
3896.77932,0.03935
3894.71971,0.03966
3892.66010,0.03955
3890.60049,0.03915
3888.54088,0.03919
3886.48127,0.03942
3884.42166,0.03911
3882.36206,0.03883
3880.30245,0.03929
3878.24284,0.03955
3876.18323,0.03927
3874.12362,0.03902
3872.06401,0.03874
3870.00441,0.03874
3867.94480,0.03928
3865.88519,0.03958
3863.82558,0.03928
3861.76597,0.03839
3859.70636,0.03731
3857.64675,0.03646
3855.58715,0.03606
3853.52754,0.03648
3851.46793,0.03723
3849.40832,0.03749
3847.34871,0.03779
3845.28910,0.03833
3843.22949,0.03851
3841.16989,0.03831
3839.11028,0.03831
3837.05067,0.03796
3834.99106,0.03669
3832.93145,0.03550
3830.87184,0.03511
3828.81223,0.03540
3826.75263,0.03579
3824.69302,0.03563
3822.63341,0.03517
3820.57380,0.03528
3818.51419,0.03591
3816.45458,0.03653
3814.39498,0.03706
3812.33537,0.03728
3810.27576,0.03702
3808.21615,0.03660
3806.15654,0.03645
3804.09693,0.03667
3802.03732,0.03714
3799.97772,0.03714
3797.91811,0.03646
3795.85850,0.03582
3793.79889,0.03536
3791.73928,0.03535
3789.67967,0.03573
3787.62006,0.03569
3785.56046,0.03537
3783.50085,0.03551
3781.44124,0.03593
3779.38163,0.03603
3777.32202,0.03560
3775.26241,0.03488
3773.20280,0.03428
3771.14320,0.03409
3769.08359,0.03430
3767.02398,0.03448
3764.96437,0.03464
3762.90476,0.03517
3760.84515,0.03538
3758.78555,0.03469
3756.72594,0.03397
3754.66633,0.03409
3752.60672,0.03490
3750.54711,0.03520
3748.48750,0.03451
3746.42789,0.03424
3744.36829,0.03430
3742.30868,0.03384
3740.24907,0.03302
3738.18946,0.03260
3736.12985,0.03316
3734.07024,0.03380
3732.01063,0.03373
3729.95103,0.03386
3727.89142,0.03418
3725.83181,0.03365
3723.77220,0.03292
3721.71259,0.03311
3719.65298,0.03315
3717.59337,0.03238
3715.53377,0.03207
3713.47416,0.03308
3711.41455,0.03401
3709.35494,0.03349
3707.29533,0.03251
3705.23572,0.03186
3703.17612,0.03172
3701.11651,0.03187
3699.05690,0.03179
3696.99729,0.03129
3694.93768,0.03078
3692.87807,0.03079
3690.81846,0.03130
3688.75886,0.03171
3686.69925,0.03130
3684.63964,0.03063
3682.58003,0.03066
3680.52042,0.03104
3678.46081,0.03096
3676.40120,0.03058
3674.34160,0.03052
3672.28199,0.03060
3670.22238,0.03034
3668.16277,0.03059
3666.10316,0.03144
3664.04355,0.03135
3661.98394,0.03016
3659.92434,0.02940
3657.86473,0.02995
3655.80512,0.03073
3653.74551,0.03005
3651.68590,0.02871
3649.62629,0.02861
3647.56669,0.02945
3645.50708,0.02952
3643.44747,0.02929
3641.38786,0.02912
3639.32825,0.02901
3637.26864,0.02920
3635.20903,0.02947
3633.14943,0.02955
3631.08982,0.02958
3629.03021,0.02994
3626.97060,0.02987
3624.91099,0.02913
3622.85138,0.02914
3620.79177,0.03002
3618.73217,0.03052
3616.67256,0.03041
3614.61295,0.03017
3612.55334,0.02984
3610.49373,0.02948
3608.43412,0.02941
3606.37451,0.02976
3604.31491,0.03023
3602.25530,0.03041
3600.19569,0.03025
3598.13608,0.03003
3596.07647,0.02968
3594.01686,0.02946
3591.95726,0.02960
3589.89765,0.02972
3587.83804,0.03002
3585.77843,0.03051
3583.71882,0.03058
3581.65921,0.03026
3579.59960,0.02996
3577.54000,0.03009
3575.48039,0.03077
3573.42078,0.03127
3571.36117,0.03132
3569.30156,0.03150
3567.24195,0.03213
3565.18234,0.03283
3563.12274,0.03310
3561.06313,0.03348
3559.00352,0.03388
3556.94391,0.03387
3554.88430,0.03404
3552.82469,0.03449
3550.76508,0.03501
3548.70548,0.03576
3546.64587,0.03646
3544.58626,0.03698
3542.52665,0.03719
3540.46704,0.03717
3538.40743,0.03736
3536.34783,0.03807
3534.28822,0.03949
3532.22861,0.04105
3530.16900,0.04203
3528.10939,0.04273
3526.04978,0.04352
3523.99017,0.04407
3521.93057,0.04438
3519.87096,0.04475
3517.81135,0.04535
3515.75174,0.04649
3513.69213,0.04780
3511.63252,0.04840
3509.57291,0.04883
3507.51331,0.05001
3505.45370,0.05092
3503.39409,0.05067
3501.33448,0.05034
3499.27487,0.05070
3497.21526,0.05164
3495.15565,0.05303
3493.09605,0.05444
3491.03644,0.05573
3488.97683,0.05691
3486.91722,0.05788
3484.85761,0.05910
3482.79800,0.06093
3480.73840,0.06304
3478.67879,0.06478
3476.61918,0.06583
3474.55957,0.06664
3472.49996,0.06786
3470.44035,0.06983
3468.38074,0.07248
3466.32114,0.07502
3464.26153,0.07696
3462.20192,0.07895
3460.14231,0.08153
3458.08270,0.08428
3456.02309,0.08690
3453.96348,0.08943
3451.90388,0.09163
3449.84427,0.09386
3447.78466,0.09688
3445.72505,0.10029
3443.66544,0.10357
3441.60583,0.10673
3439.54622,0.10943
3437.48662,0.11190
3435.42701,0.11474
3433.36740,0.11832
3431.30779,0.12278
3429.24818,0.12753
3427.18857,0.13266
3425.12897,0.13919
3423.06936,0.14757
3421.00975,0.15792
3418.95014,0.17037
3416.89053,0.18482
3414.83092,0.20021
3412.77131,0.21509
3410.71171,0.22870
3408.65210,0.23980
3406.59249,0.24694
3404.53288,0.25057
3402.47327,0.25214
3400.41366,0.25285
3398.35405,0.25378
3396.29445,0.25471
3394.23484,0.25490
3392.17523,0.25453
3390.11562,0.25320
3388.05601,0.25029
3385.99640,0.24628
3383.93679,0.24255
3381.87719,0.23963
3379.81758,0.23708
3377.75797,0.23529
3375.69836,0.23456
3373.63875,0.23461
3371.57914,0.23526
3369.51954,0.23654
3367.45993,0.23870
3365.40032,0.24220
3363.34071,0.24646
3361.28110,0.25007
3359.22149,0.25298
3357.16188,0.25626
3355.10228,0.26055
3353.04267,0.26499
3350.98306,0.26836
3348.92345,0.27062
3346.86384,0.27261
3344.80423,0.27495
3342.74462,0.27731
3340.68502,0.27925
3338.62541,0.28114
3336.56580,0.28342
3334.50619,0.28611
3332.44658,0.28957
3330.38697,0.29367
3328.32736,0.29740
3326.26776,0.30077
3324.20815,0.30477
3322.14854,0.30965
3320.08893,0.31484
3318.02932,0.32004
3315.96971,0.32511
3313.91011,0.32982
3311.85050,0.33386
3309.79089,0.33741
3307.73128,0.34075
3305.67167,0.34357
3303.61206,0.34591
3301.55245,0.34751
3299.49285,0.34829
3297.43324,0.34867
3295.37363,0.34852
3293.31402,0.34785
3291.25441,0.34726
3289.19480,0.34732
3287.13519,0.34803
3285.07559,0.34891
3283.01598,0.34979
3280.95637,0.35081
3278.89676,0.35167
3276.83715,0.35231
3274.77754,0.35293
3272.71793,0.35355
3270.65833,0.35460
3268.59872,0.35600
3266.53911,0.35698
3264.47950,0.35760
3262.41989,0.35818
3260.36028,0.35865
3258.30068,0.35939
3256.24107,0.36051
3254.18146,0.36113
3252.12185,0.36103
3250.06224,0.36123
3248.00263,0.36176
3245.94302,0.36185
3243.88342,0.36188
3241.82381,0.36230
3239.76420,0.36243
3237.70459,0.36199
3235.64498,0.36147
3233.58537,0.36087
3231.52576,0.36022
3229.46616,0.35967
3227.40655,0.35873
3225.34694,0.35770
3223.28733,0.35751
3221.22772,0.35755
3219.16811,0.35705
3217.10850,0.35657
3215.04890,0.35679
3212.98929,0.35715
3210.92968,0.35701
3208.87007,0.35666
3206.81046,0.35650
3204.75085,0.35648
3202.69125,0.35589
3200.63164,0.35487
3198.57203,0.35447
3196.51242,0.35422
3194.45281,0.35330
3192.39320,0.35218
3190.33359,0.35098
3188.27399,0.34939
3186.21438,0.34780
3184.15477,0.34623
3182.09516,0.34433
3180.03555,0.34224
3177.97594,0.33989
3175.91633,0.33682
3173.85673,0.33363
3171.79712,0.33108
3169.73751,0.32867
3167.67790,0.32585
3165.61829,0.32274
3163.55868,0.31935
3161.49907,0.31608
3159.43947,0.31320
3157.37986,0.31022
3155.32025,0.30719
3153.26064,0.30431
3151.20103,0.30119
3149.14142,0.29796
3147.08182,0.29490
3145.02221,0.29175
3142.96260,0.28844
3140.90299,0.28521
3138.84338,0.28208
3136.78377,0.27883
3134.72416,0.27538
3132.66456,0.27210
3130.60495,0.26935
3128.54534,0.26689
3126.48573,0.26411
3124.42612,0.26073
3122.36651,0.25713
3120.30690,0.25366
3118.24730,0.25042
3116.18769,0.24750
3114.12808,0.24465
3112.06847,0.24159
3110.00886,0.23850
3107.94925,0.23527
3105.88965,0.23172
3103.83004,0.22834
3101.77043,0.22554
3099.71082,0.22282
3097.65121,0.21989
3095.59160,0.21696
3093.53199,0.21378
3091.47239,0.21056
3089.41278,0.20777
3087.35317,0.20503
3085.29356,0.20197
3083.23395,0.19887
3081.17434,0.19593
3079.11473,0.19319
3077.05513,0.19073
3074.99552,0.18839
3072.93591,0.18598
3070.87630,0.18349
3068.81669,0.18081
3066.75708,0.17806
3064.69747,0.17550
3062.63787,0.17294
3060.57826,0.17023
3058.51865,0.16777
3056.45904,0.16567
3054.39943,0.16349
3052.33982,0.16097
3050.28022,0.15815
3048.22061,0.15527
3046.16100,0.15285
3044.10139,0.15096
3042.04178,0.14897
3039.98217,0.14684
3037.92256,0.14485
3035.86296,0.14319
3033.80335,0.14167
3031.74374,0.13972
3029.68413,0.13746
3027.62452,0.13547
3025.56491,0.13392
3023.50530,0.13250
3021.44570,0.13062
3019.38609,0.12864
3017.32648,0.12707
3015.26687,0.12531
3013.20726,0.12329
3011.14765,0.12162
3009.08804,0.12032
3007.02844,0.11901
3004.96883,0.11772
3002.90922,0.11652
3000.84961,0.11524
2998.79000,0.11407
2996.73039,0.11306
2994.67079,0.11187
2992.61118,0.11040
2990.55157,0.10890
2988.49196,0.10746
2986.43235,0.10589
2984.37274,0.10433
2982.31313,0.10323
2980.25353,0.10258
2978.19392,0.10186
2976.13431,0.10118
2974.07470,0.10095
2972.01509,0.10068
2969.95548,0.09998
2967.89587,0.09943
2965.83627,0.09944
2963.77666,0.09973
2961.71705,0.10020
2959.65744,0.10107
2957.59783,0.10307
2955.53822,0.10741
2953.47861,0.11549
2951.41901,0.12925
2949.35940,0.14956
2947.29979,0.17323
2945.24018,0.19272
2943.18057,0.19969
2941.12096,0.19221
2939.06136,0.17706
2937.00175,0.16165
2934.94214,0.14865
2932.88253,0.13822
2930.82292,0.13038
2928.76331,0.12522
2926.70370,0.12253
2924.64410,0.12182
2922.58449,0.12328
2920.52488,0.12837
2918.46527,0.13866
2916.40566,0.15309
2914.34605,0.16574
2912.28644,0.16884
2910.22684,0.16143
2908.16723,0.15008
2906.10762,0.14054
2904.04801,0.13443
2901.98840,0.13124
2899.92879,0.13046
2897.86918,0.13308
2895.80958,0.14004
2893.74997,0.14963
2891.69036,0.15646
2889.63075,0.15563
2887.57114,0.14901
2885.51153,0.14257
2883.45193,0.13945
2881.39232,0.13942
2879.33271,0.14077
2877.27310,0.14165
2875.21349,0.14123
2873.15388,0.13950
2871.09427,0.13675
2869.03467,0.13373
2866.97506,0.13123
2864.91545,0.12933
2862.85584,0.12764
2860.79623,0.12613
2858.73662,0.12504
2856.67701,0.12432
2854.61741,0.12387
2852.55780,0.12366
2850.49819,0.12346
2848.43858,0.12309
2846.37897,0.12244
2844.31936,0.12134
2842.25975,0.12000
2840.20015,0.11874
2838.14054,0.11757
2836.08093,0.11605
2834.02132,0.11404
2831.96171,0.11206
2829.90210,0.11038
2827.84250,0.10875
2825.78289,0.10715
2823.72328,0.10583
2821.66367,0.10479
2819.60406,0.10394
2817.54445,0.10323
2815.48484,0.10258
2813.42524,0.10201
2811.36563,0.10188
2809.30602,0.10223
2807.24641,0.10253
2805.18680,0.10258
2803.12719,0.10271
2801.06758,0.10302
2799.00798,0.10316
2796.94837,0.10294
2794.88876,0.10264
2792.82915,0.10249
2790.76954,0.10231
2788.70993,0.10186
2786.65032,0.10129
2784.59072,0.10074
2782.53111,0.09990
2780.47150,0.09887
2778.41189,0.09820
2776.35228,0.09780
2774.29267,0.09739
2772.23307,0.09686
2770.17346,0.09610
2768.11385,0.09526
2766.05424,0.09453
2763.99463,0.09399
2761.93502,0.09353
2759.87541,0.09295
2757.81581,0.09219
2755.75620,0.09133
2753.69659,0.09046
2751.63698,0.08966
2749.57737,0.08877
2747.51776,0.08768
2745.45815,0.08672
2743.39855,0.08595
2741.33894,0.08537
2739.27933,0.08513
2737.21972,0.08489
2735.16011,0.08430
2733.10050,0.08379
2731.04089,0.08376
2728.98129,0.08379
2726.92168,0.08350
2724.86207,0.08319
2722.80246,0.08310
2720.74285,0.08288
2718.68324,0.08255
2716.62364,0.08237
2714.56403,0.08228
2712.50442,0.08236
2710.44481,0.08259
2708.38520,0.08279
2706.32559,0.08304
2704.26598,0.08331
2702.20638,0.08347
2700.14677,0.08351
2698.08716,0.08346
2696.02755,0.08330
2693.96794,0.08314
2691.90833,0.08308
2689.84872,0.08291
2687.78912,0.08261
2685.72951,0.08225
2683.66990,0.08169
2681.61029,0.08114
2679.55068,0.08090
2677.49107,0.08072
2675.43146,0.08036
2673.37186,0.08003
2671.31225,0.07972
2669.25264,0.07919
2667.19303,0.07882
2665.13342,0.07882
2663.07381,0.07874
2661.01421,0.07824
2658.95460,0.07750
2656.89499,0.07682
2654.83538,0.07628
2652.77577,0.07583
2650.71616,0.07530
2648.65655,0.07442
2646.59695,0.07342
2644.53734,0.07273
2642.47773,0.07213
2640.41812,0.07144
2638.35851,0.07090
2636.29890,0.07062
2634.23929,0.07011
2632.17969,0.06929
2630.12008,0.06865
2628.06047,0.06826
2626.00086,0.06792
2623.94125,0.06760
2621.88164,0.06719
2619.82203,0.06654
2617.76243,0.06569
2615.70282,0.06477
2613.64321,0.06422
2611.58360,0.06417
2609.52399,0.06410
2607.46438,0.06416
2605.40478,0.06439
2603.34517,0.06411
2601.28556,0.06357
2599.22595,0.06308
2597.16634,0.06250
2595.10673,0.06209
2593.04712,0.06175
2590.98752,0.06102
2588.92791,0.06006
2586.86830,0.05945
2584.80869,0.05899
2582.74908,0.05838
2580.68947,0.05799
2578.62986,0.05790
2576.57026,0.05785
2574.51065,0.05775
2572.45104,0.05756
2570.39143,0.05739
2568.33182,0.05730
2566.27221,0.05710
2564.21260,0.05687
2562.15300,0.05675
2560.09339,0.05659
2558.03378,0.05634
2555.97417,0.05615
2553.91456,0.05624
2551.85495,0.05647
2549.79535,0.05635
2547.73574,0.05591
2545.67613,0.05588
2543.61652,0.05629
2541.55691,0.05637
2539.49730,0.05606
2537.43769,0.05606
2535.37809,0.05650
2533.31848,0.05664
2531.25887,0.05608
2529.19926,0.05514
2527.13965,0.05436
2525.08004,0.05403
2523.02043,0.05388
2520.96083,0.05358
2518.90122,0.05351
2516.84161,0.05395
2514.78200,0.05430
2512.72239,0.05424
2510.66278,0.05405
2508.60317,0.05392
2506.54357,0.05391
2504.48396,0.05407
2502.42435,0.05395
2500.36474,0.05342
2498.30513,0.05319
2496.24552,0.05330
2494.18592,0.05316
2492.12631,0.05251
2490.06670,0.05175
2488.00709,0.05163
2485.94748,0.05191
2483.88787,0.05185
2481.82826,0.05156
2479.76866,0.05122
2477.70905,0.05069
2475.64944,0.05024
2473.58983,0.05023
2471.53022,0.05009
2469.47061,0.04945
2467.41100,0.04896
2465.35140,0.04897
2463.29179,0.04912
2461.23218,0.04912
2459.17257,0.04875
2457.11296,0.04785
2455.05335,0.04681
2452.99374,0.04636
2450.93414,0.04645
2448.87453,0.04640
2446.81492,0.04602
2444.75531,0.04582
2442.69570,0.04586
2440.63609,0.04555
2438.57649,0.04494
2436.51688,0.04457
2434.45727,0.04459
2432.39766,0.04468
2430.33805,0.04443
2428.27844,0.04405
2426.21883,0.04374
2424.15923,0.04340
2422.09962,0.04306
2420.04001,0.04292
2417.98040,0.04307
2415.92079,0.04321
2413.86118,0.04299
2411.80157,0.04248
2409.74197,0.04196
2407.68236,0.04164
2405.62275,0.04146
2403.56314,0.04137
2401.50353,0.04149
2399.44392,0.04188
2397.38431,0.04223
2395.32471,0.04221
2393.26510,0.04191
2391.20549,0.04149
2389.14588,0.04122
2387.08627,0.04112
2385.02666,0.04082
2382.96706,0.04041
2380.90745,0.04023
2378.84784,0.04010
2376.78823,0.03996
2374.72862,0.03985
2372.66901,0.03956
2370.60940,0.03932
2368.54980,0.03958
2366.49019,0.04024
2364.43058,0.04070
2362.37097,0.04098
2360.31136,0.04091
2358.25175,0.04050
2356.19214,0.04057
2354.13254,0.04074
2352.07293,0.04042
2350.01332,0.03992
2347.95371,0.03943
2345.89410,0.03906
2343.83449,0.03896
2341.77488,0.03893
2339.71528,0.03881
2337.65567,0.03883
2335.59606,0.03912
2333.53645,0.03929
2331.47684,0.03917
2329.41723,0.03930
2327.35763,0.04006
2325.29802,0.04074
2323.23841,0.04040
2321.17880,0.03926
2319.11919,0.03828
2317.05958,0.03784
2314.99997,0.03770
2312.94037,0.03772
2310.88076,0.03767
2308.82115,0.03719
2306.76154,0.03666
2304.70193,0.03647
2302.64232,0.03635
2300.58271,0.03622
2298.52311,0.03626
2296.46350,0.03658
2294.40389,0.03698
2292.34428,0.03711
2290.28467,0.03677
2288.22506,0.03631
2286.16545,0.03615
2284.10585,0.03589
2282.04624,0.03517
2279.98663,0.03434
2277.92702,0.03407
2275.86741,0.03428
2273.80780,0.03385
2271.74820,0.03309
2269.68859,0.03309
2267.62898,0.03351
2265.56937,0.03374
2263.50976,0.03381
2261.45015,0.03369
2259.39054,0.03336
2257.33094,0.03306
2255.27133,0.03261
2253.21172,0.03231
2251.15211,0.03285
2249.09250,0.03326
2247.03289,0.03243
2244.97328,0.03129
2242.91368,0.03092
2240.85407,0.03119
2238.79446,0.03138
2236.73485,0.03099
2234.67524,0.03078
2232.61563,0.03064
2230.55602,0.02945
2228.49642,0.02783
2226.43681,0.02715
2224.37720,0.02769
2222.31759,0.02858
2220.25798,0.02895
2218.19837,0.02872
2216.13877,0.02873
2214.07916,0.02910
2212.01955,0.02881
2209.95994,0.02800
2207.90033,0.02751
2205.84072,0.02733
2203.78111,0.02729
2201.72151,0.02754
2199.66190,0.02791
2197.60229,0.02810
2195.54268,0.02787
2193.48307,0.02727
2191.42346,0.02690
2189.36385,0.02752
2187.30425,0.02879
2185.24464,0.02870
2183.18503,0.02700
2181.12542,0.02536
2179.06581,0.02475
2177.00620,0.02492
2174.94659,0.02588
2172.88699,0.02759
2170.82738,0.02830
2168.76777,0.02793
2166.70816,0.02806
2164.64855,0.02833
2162.58894,0.02690
2160.52934,0.02380
2158.46973,0.02168
2156.41012,0.02157
2154.35051,0.02180
2152.29090,0.02195
2150.23129,0.02288
2148.17168,0.02406
2146.11208,0.02480
2144.05247,0.02495
2141.99286,0.02482
2139.93325,0.02490
2137.87364,0.02495
2135.81403,0.02467
2133.75442,0.02429
2131.69482,0.02421
2129.63521,0.02459
2127.57560,0.02552
2125.51599,0.02659
2123.45638,0.02742
2121.39677,0.02798
2119.33716,0.02804
2117.27756,0.02782
2115.21795,0.02777
2113.15834,0.02783
2111.09873,0.02775
2109.03912,0.02769
2106.97951,0.02797
2104.91991,0.02809
2102.86030,0.02785
2100.80069,0.02746
2098.74108,0.02661
2096.68147,0.02564
2094.62186,0.02552
2092.56225,0.02612
2090.50265,0.02668
2088.44304,0.02714
2086.38343,0.02746
2084.32382,0.02738
2082.26421,0.02712
2080.20460,0.02719
2078.14499,0.02728
2076.08539,0.02684
2074.02578,0.02666
2071.96617,0.02704
2069.90656,0.02707
2067.84695,0.02638
2065.78734,0.02606
2063.72773,0.02705
2061.66813,0.02762
2059.60852,0.02664
2057.54891,0.02564
2055.48930,0.02553
2053.42969,0.02597
2051.37008,0.02642
2049.31048,0.02602
2047.25087,0.02457
2045.19126,0.02332
2043.13165,0.02329
2041.07204,0.02338
2039.01243,0.02222
2036.95282,0.02107
2034.89322,0.02100
2032.83361,0.02101
2030.77400,0.02144
2028.71439,0.02262
2026.65478,0.02226
2024.59517,0.01972
2022.53556,0.01820
2020.47596,0.01945
2018.41635,0.02111
2016.35674,0.02117
2014.29713,0.02039
2012.23752,0.01983
2010.17791,0.01957
2008.11830,0.01934
2006.05870,0.01950
2003.99909,0.01984
2001.93948,0.01957
1999.87987,0.01965
1997.82026,0.02099
1995.76065,0.02233
1993.70105,0.02248
1991.64144,0.02181
1989.58183,0.02134
1987.52222,0.02135
1985.46261,0.02151
1983.40300,0.02183
1981.34339,0.02181
1979.28379,0.02050
1977.22418,0.01907
1975.16457,0.01863
1973.10496,0.01868
1971.04535,0.01902
1968.98574,0.01912
1966.92613,0.01915
1964.86653,0.01941
1962.80692,0.01936
1960.74731,0.01930
1958.68770,0.01955
1956.62809,0.01980
1954.56848,0.01988
1952.50887,0.01977
1950.44927,0.02013
1948.38966,0.02095
1946.33005,0.02110
1944.27044,0.02065
1942.21083,0.02094
1940.15122,0.02173
1938.09162,0.02179
1936.03201,0.02123
1933.97240,0.02096
1931.91279,0.02141
1929.85318,0.02193
1927.79357,0.02198
1925.73396,0.02201
1923.67436,0.02237
1921.61475,0.02265
1919.55514,0.02250
1917.49553,0.02227
1915.43592,0.02237
1913.37631,0.02240
1911.31670,0.02217
1909.25710,0.02215
1907.19749,0.02235
1905.13788,0.02258
1903.07827,0.02284
1901.01866,0.02284
1898.95905,0.02281
1896.89944,0.02277
1894.83984,0.02267
1892.78023,0.02289
1890.72062,0.02319
1888.66101,0.02313
1886.60140,0.02292
1884.54179,0.02274
1882.48219,0.02271
1880.42258,0.02282
1878.36297,0.02282
1876.30336,0.02300
1874.24375,0.02337
1872.18414,0.02338
1870.12453,0.02331
1868.06493,0.02332
1866.00532,0.02301
1863.94571,0.02276
1861.88610,0.02305
1859.82649,0.02349
1857.76688,0.02354
1855.70727,0.02337
1853.64767,0.02322
1851.58806,0.02302
1849.52845,0.02297
1847.46884,0.02322
1845.40923,0.02355
1843.34962,0.02385
1841.29002,0.02384
1839.23041,0.02337
1837.17080,0.02298
1835.11119,0.02294
1833.05158,0.02291
1830.99197,0.02282
1828.93236,0.02283
1826.87276,0.02303
1824.81315,0.02316
1822.75354,0.02304
1820.69393,0.02286
1818.63432,0.02270
1816.57471,0.02258
1814.51510,0.02268
1812.45550,0.02289
1810.39589,0.02293
1808.33628,0.02290
1806.27667,0.02288
1804.21706,0.02270
1802.15745,0.02250
1800.09784,0.02265
1798.03824,0.02301
1795.97863,0.02318
1793.91902,0.02311
1791.85941,0.02289
1789.79980,0.02269
1787.74019,0.02265
1785.68059,0.02273
1783.62098,0.02283
1781.56137,0.02291
1779.50176,0.02289
1777.44215,0.02283
1775.38254,0.02285
1773.32293,0.02302
1771.26333,0.02313
1769.20372,0.02305
1767.14411,0.02299
1765.08450,0.02301
1763.02489,0.02298
1760.96528,0.02293
1758.90567,0.02295
1756.84607,0.02299
1754.78646,0.02302
1752.72685,0.02312
1750.66724,0.02323
1748.60763,0.02312
1746.54802,0.02296
1744.48841,0.02294
1742.42881,0.02292
1740.36920,0.02275
1738.30959,0.02257
1736.24998,0.02249
1734.19037,0.02251
1732.13076,0.02244
1730.07116,0.02220
1728.01155,0.02208
1725.95194,0.02222
1723.89233,0.02240
1721.83272,0.02234
1719.77311,0.02218
1717.71350,0.02228
1715.65390,0.02249
1713.59429,0.02232
1711.53468,0.02200
1709.47507,0.02195
1707.41546,0.02211
1705.35585,0.02236
1703.29624,0.02244
1701.23664,0.02227
1699.17703,0.02212
1697.11742,0.02223
1695.05781,0.02240
1692.99820,0.02234
1690.93859,0.02224
1688.87898,0.02232
1686.81938,0.02245
1684.75977,0.02247
1682.70016,0.02229
1680.64055,0.02208
1678.58094,0.02198
1676.52133,0.02197
1674.46173,0.02199
1672.40212,0.02191
1670.34251,0.02182
1668.28290,0.02196
1666.22329,0.02221
1664.16368,0.02233
1662.10407,0.02233
1660.04447,0.02230
1657.98486,0.02224
1655.92525,0.02215
1653.86564,0.02223
1651.80603,0.02236
1649.74642,0.02227
1647.68681,0.02229
1645.62721,0.02238
1643.56760,0.02228
1641.50799,0.02212
1639.44838,0.02207
1637.38877,0.02210
1635.32916,0.02201
1633.26955,0.02184
1631.20995,0.02171
1629.15034,0.02166
1627.09073,0.02171
1625.03112,0.02176
1622.97151,0.02172
1620.91190,0.02164
1618.85230,0.02156
1616.79269,0.02155
1614.73308,0.02156
1612.67347,0.02153
1610.61386,0.02147
1608.55425,0.02147
1606.49464,0.02153
1604.43504,0.02146
1602.37543,0.02122
1600.31582,0.02113
1598.25621,0.02128
1596.19660,0.02144
1594.13699,0.02152
1592.07738,0.02155
1590.01778,0.02155
1587.95817,0.02157
1585.89856,0.02166
1583.83895,0.02181
1581.77934,0.02194
1579.71973,0.02198
1577.66012,0.02199
1575.60052,0.02205
1573.54091,0.02201
1571.48130,0.02206
1569.42169,0.02233
1567.36208,0.02246
1565.30247,0.02240
1563.24287,0.02235
1561.18326,0.02229
1559.12365,0.02242
1557.06404,0.02264
1555.00443,0.02250
1552.94482,0.02226
1550.88521,0.02224
1548.82561,0.02245
1546.76600,0.02267
1544.70639,0.02273
1542.64678,0.02271
1540.58717,0.02280
1538.52756,0.02302
1536.46795,0.02315
1534.40835,0.02316
1532.34874,0.02318
1530.28913,0.02329
1528.22952,0.02350
1526.16991,0.02366
1524.11030,0.02365
1522.05069,0.02375
1519.99109,0.02412
1517.93148,0.02446
1515.87187,0.02473
1513.81226,0.02498
1511.75265,0.02513
1509.69304,0.02519
1507.63344,0.02562
1505.57383,0.02645
1503.51422,0.02687
1501.45461,0.02709
1499.39500,0.02744
1497.33539,0.02800
1495.27578,0.02880
1493.21618,0.02960
1491.15657,0.03048
1489.09696,0.03167
1487.03735,0.03301
1484.97774,0.03434
1482.91813,0.03586
1480.85852,0.03771
1478.79892,0.03985
1476.73931,0.04249
1474.67970,0.04592
1472.62009,0.05068
1470.56048,0.05622
1468.50087,0.06164
1466.44126,0.06836
1464.38166,0.07790
1462.32205,0.08804
1460.26244,0.09566
1458.20283,0.09910
1456.14322,0.09713
1454.08361,0.09394
1452.02401,0.09238
1449.96440,0.09246
1447.90479,0.09403
1445.84518,0.09612
1443.78557,0.09744
1441.72596,0.09741
1439.66635,0.09622
1437.60675,0.09438
1435.54714,0.09263
1433.48753,0.09163
1431.42792,0.09131
1429.36831,0.09116
1427.30870,0.09049
1425.24909,0.08902
1423.18949,0.08694
1421.12988,0.08461
1419.07027,0.08225
1417.01066,0.08050
1414.95105,0.07961
1412.89144,0.07919
1410.83183,0.07903
1408.77223,0.07877
1406.71262,0.07802
1404.65301,0.07654
1402.59340,0.07436
1400.53379,0.07151
1398.47418,0.06810
1396.41458,0.06475
1394.35497,0.06204
1392.29536,0.06075
1390.23575,0.06168
1388.17614,0.06604
1386.11653,0.07422
1384.05692,0.08319
1381.99732,0.08950
1379.93771,0.09174
1377.87810,0.09132
1375.81849,0.09116
1373.75888,0.09274
1371.69927,0.09392
1369.63966,0.09137
1367.58006,0.08560
1365.52045,0.07985
1363.46084,0.07539
1361.40123,0.07185
1359.34162,0.06914
1357.28201,0.06774
1355.22240,0.06842
1353.16280,0.07137
1351.10319,0.07587
1349.04358,0.08056
1346.98397,0.08434
1344.92436,0.08847
1342.86475,0.09486
1340.80515,0.10165
1338.74554,0.10364
1336.68593,0.09948
1334.62632,0.09379
1332.56671,0.09043
1330.50710,0.08854
1328.44749,0.08373
1326.38789,0.07460
1324.32828,0.06496
1322.26867,0.05775
1320.20906,0.05279
1318.14945,0.04932
1316.08984,0.04694
1314.03023,0.04521
1311.97063,0.04397
1309.91102,0.04330
1307.85141,0.04344
1305.79180,0.04458
1303.73219,0.04681
1301.67258,0.05021
1299.61297,0.05433
1297.55337,0.05767
1295.49376,0.05861
1293.43415,0.05708
1291.37454,0.05467
1289.31493,0.05308
1287.25532,0.05290
1285.19572,0.05375
1283.13611,0.05480
1281.07650,0.05525
1279.01689,0.05482
1276.95728,0.05389
1274.89767,0.05299
1272.83806,0.05239
1270.77846,0.05174
1268.71885,0.05062
1266.65924,0.04889
1264.59963,0.04663
1262.54002,0.04421
1260.48041,0.04197
1258.42080,0.04006
1256.36120,0.03842
1254.30159,0.03704
1252.24198,0.03597
1250.18237,0.03500
1248.12276,0.03398
1246.06315,0.03310
1244.00354,0.03250
1241.94394,0.03225
1239.88433,0.03243
1237.82472,0.03306
1235.76511,0.03446
1233.70550,0.03730
1231.64589,0.04246
1229.58629,0.05107
1227.52668,0.06301
1225.46707,0.07439
1223.40746,0.07878
1221.34785,0.07354
1219.28824,0.06281
1217.22863,0.05231
1215.16903,0.04488
1213.10942,0.04094
1211.04981,0.04029
1208.99020,0.04314
1206.93059,0.04994
1204.87098,0.05855
1202.81137,0.06316
1200.75177,0.06044
1198.69216,0.05356
1196.63255,0.04696
1194.57294,0.04208
1192.51333,0.03856
1190.45372,0.03602
1188.39411,0.03426
1186.33451,0.03305
1184.27490,0.03212
1182.21529,0.03144
1180.15568,0.03103
1178.09607,0.03082
1176.03646,0.03087
1173.97686,0.03131
1171.91725,0.03220
1169.85764,0.03363
1167.79803,0.03567
1165.73842,0.03839
1163.67881,0.04237
1161.61920,0.04855
1159.55960,0.05777
1157.49999,0.07066
1155.44038,0.08722
1153.38077,0.10637
1151.32116,0.12589
1149.26155,0.14250
1147.20194,0.15243
1145.14234,0.15321
1143.08273,0.14544
1141.02312,0.13226
1138.96351,0.11732
1136.90390,0.10331
1134.84429,0.09187
1132.78468,0.08388
1130.72508,0.07877
1128.66547,0.07528
1126.60586,0.07428
1124.54625,0.07898
1122.48664,0.09100
1120.42703,0.10715
1118.36743,0.12187
1116.30782,0.13496
1114.24821,0.15146
1112.18860,0.16936
1110.12899,0.17909
1108.06938,0.17987
1106.00977,0.17985
1103.95017,0.17992
1101.89056,0.17329
1099.83095,0.15768
1097.77134,0.13778
1095.71173,0.11862
1093.65212,0.10234
1091.59251,0.08982
1089.53291,0.08162
1087.47330,0.07762
1085.41369,0.07759
1083.35408,0.08158
1081.29447,0.08800
1079.23486,0.09273
1077.17525,0.09265
1075.11565,0.08793
1073.05604,0.08020
1070.99643,0.07255
1068.93682,0.06890
1066.87721,0.07024
1064.81760,0.07400
1062.75800,0.07854
1060.69839,0.08580
1058.63878,0.09688
1056.57917,0.11002
1054.51956,0.12515
1052.45995,0.14347
1050.40034,0.16042
1048.34074,0.16774
1046.28113,0.16164
1044.22152,0.14582
1042.16191,0.12930
1040.10230,0.11949
1038.04269,0.11842
1035.98308,0.12557
1033.92348,0.13912
1031.86387,0.15560
1029.80426,0.17219
1027.74465,0.18826
1025.68504,0.20370
1023.62543,0.21703
1021.56582,0.22541
1019.50622,0.22743
1017.44661,0.22657
1015.38700,0.22703
1013.32739,0.22563
1011.26778,0.21761
1009.20817,0.20734
1007.14857,0.20304
1005.08896,0.20782
1003.02935,0.21879
1000.96974,0.23152
998.91013,0.24504
996.85052,0.26006
994.79091,0.27284
992.73131,0.27701
990.67170,0.27114
988.61209,0.25909
986.55248,0.24466
984.49287,0.22963
982.43326,0.21491
980.37365,0.20117
978.31405,0.18823
976.25444,0.17557
974.19483,0.16328
972.13522,0.15181
970.07561,0.14148
968.01600,0.13242
965.95639,0.12457
963.89679,0.11761
961.83718,0.11120
959.77757,0.10527
957.71796,0.09984
955.65835,0.09490
953.59874,0.09034
951.53914,0.08609
949.47953,0.08210
947.41992,0.07835
945.36031,0.07484
943.30070,0.07160
941.24109,0.06860
939.18148,0.06573
937.12188,0.06312
935.06227,0.06085
933.00266,0.05889
930.94305,0.05729
928.88344,0.05627
926.82383,0.05612
924.76422,0.05775
922.70462,0.06348
920.64501,0.07579
918.58540,0.09305
916.52579,0.10724
914.46618,0.11000
912.40657,0.10138
910.34696,0.08869
908.28736,0.07772
906.22775,0.06961
904.16814,0.06368
902.10853,0.05935
900.04892,0.05610
897.98931,0.05336
895.92971,0.05098
893.87010,0.04907
891.81049,0.04758
889.75088,0.04623
887.69127,0.04484
885.63166,0.04354
883.57205,0.04252
881.51245,0.04178
879.45284,0.04112
877.39323,0.04039
875.33362,0.03949
873.27401,0.03851
871.21440,0.03774
869.15479,0.03726
867.09519,0.03685
865.03558,0.03650
862.97597,0.03627
860.91636,0.03621
858.85675,0.03648
856.79714,0.03711
854.73753,0.03789
852.67793,0.03862
850.61832,0.03941
848.55871,0.04099
846.49910,0.04468
844.43949,0.05246
842.37988,0.06630
840.32028,0.08403
838.26067,0.09586
836.20106,0.09330
834.14145,0.08052
832.08184,0.06697
830.02223,0.05692
827.96262,0.05017
825.90302,0.04572
823.84341,0.04293
821.78380,0.04114
819.72419,0.03977
817.66458,0.03863
815.60497,0.03770
813.54536,0.03696
811.48576,0.03647
809.42615,0.03615
807.36654,0.03591
805.30693,0.03592
803.24732,0.03613
801.18771,0.03630
799.12810,0.03650
797.06850,0.03688
795.00889,0.03744
792.94928,0.03823
790.88967,0.03945
788.83006,0.04135
786.77045,0.04429
784.71085,0.04907
782.65124,0.05688
780.59163,0.06791
778.53202,0.07987
776.47241,0.08871
774.41280,0.09154
772.35319,0.08861
770.29359,0.08249
768.23398,0.07586
766.17437,0.07022
764.11476,0.06602
762.05515,0.06325
759.99554,0.06164
757.93593,0.06090
755.87633,0.06073
753.81672,0.06106
751.75711,0.06178
749.69750,0.06249
747.63789,0.06318
745.57828,0.06426
743.51867,0.06561
741.45907,0.06676
739.39946,0.06758
737.33985,0.06828
735.28024,0.06889
733.22063,0.06930
731.16102,0.06949
729.10142,0.06955
727.04181,0.06953
724.98220,0.06942
722.92259,0.06917
720.86298,0.06883
718.80337,0.06837
716.74376,0.06776
714.68416,0.06707
712.62455,0.06639
710.56494,0.06569
708.50533,0.06492
706.44572,0.06401
704.38611,0.06302
702.32650,0.06219
700.26690,0.06163
698.20729,0.06121
696.14768,0.06074
694.08807,0.06030
692.02846,0.05995
689.96885,0.05969
687.90924,0.05977
685.84964,0.06013
683.79003,0.06041
681.73042,0.06055
679.67081,0.06084
677.61120,0.06141
675.55159,0.06204
673.49199,0.06264
671.43238,0.06330
669.37277,0.06441
667.31316,0.06647
665.25355,0.06852
663.19394,0.07044
661.13433,0.07281
659.07473,0.07581
657.01512,0.08005
654.95551,0.08584
652.89590,0.09242
650.83629,0.09896
648.77668,0.10456
646.71707,0.10783
644.65747,0.10815
642.59786,0.10661
640.53825,0.10522
638.47864,0.10525
636.41903,0.10679
634.35942,0.10929
632.29981,0.11236
630.24021,0.11583
628.18060,0.11931
626.12099,0.12227
624.06138,0.12475
622.00177,0.12693
619.94216,0.12864
617.88256,0.12989
615.82295,0.13073
613.76334,0.13108
611.70373,0.13078
609.64412,0.12996
607.58451,0.12904
605.52490,0.12815
603.46530,0.12708
601.40569,0.12582
599.34608,0.12441
597.28647,0.12223
595.22686,0.11869
593.16725,0.11405
591.10764,0.10896
589.04804,0.10425
586.98843,0.10064
584.92882,0.09808
582.86921,0.09630
580.80960,0.09506
578.74999,0.09399
576.69039,0.09299
574.63078,0.09205
572.57117,0.09112
570.51156,0.09047
568.45195,0.09022
566.39234,0.09038
564.33273,0.09134
562.27313,0.09352
560.21352,0.09666
558.15391,0.09951
556.09430,0.10079
554.03469,0.10017
551.97508,0.09837
549.91547,0.09659
547.85587,0.09566
545.79626,0.09549
543.73665,0.09498
541.67704,0.09427
539.61743,0.09481
537.55782,0.09606
535.49821,0.09576
533.43861,0.09356
531.37900,0.09086
529.31939,0.08845
527.25978,0.08617
525.20017,0.08404
523.14056,0.08227
521.08096,0.08042
519.02135,0.07848
516.96174,0.07686
514.90213,0.07536
512.84252,0.07368
510.78291,0.07204
508.72330,0.07049
506.66370,0.06884
504.60409,0.06719
502.54448,0.06546
500.48487,0.06392
498.42526,0.06284
496.36565,0.06175
494.30604,0.06061
492.24644,0.05959
490.18683,0.05841
488.12722,0.05686
486.06761,0.05524
484.00800,0.05409
481.94839,0.05327
479.88878,0.05227
477.82918,0.05128
475.76957,0.05051
473.70996,0.04981
471.65035,0.04887
469.59074,0.04766
467.53113,0.04657
465.47153,0.04571
463.41192,0.04498
461.35231,0.04407
459.29270,0.04279
457.23309,0.04144
455.17348,0.04037
453.11387,0.03946
451.05427,0.03847
448.99466,0.03775
446.93505,0.03736
444.87544,0.03665
442.81583,0.03602
440.75622,0.03678
438.69661,0.03956
436.63701,0.04396
434.57740,0.04729
432.51779,0.04663
430.45818,0.04315
428.39857,0.03992
426.33896,0.03845
424.27935,0.03885
422.21975,0.04006
420.16014,0.04033
418.10053,0.03874
416.04092,0.03720
413.98131,0.03787
411.92170,0.04128
409.86210,0.04724
407.80249,0.05427
405.74288,0.05887
403.68327,0.05779
401.62366,0.05191
399.56405,0.04464
397.50444,0.03942
395.44484,0.03900
393.38523,0.04329
391.32562,0.04919
389.26601,0.05185
387.20640,0.05043
385.14679,0.04822
383.08718,0.04769
381.02758,0.05059
378.96797,0.05661
376.90836,0.06328
374.84875,0.06583
372.78914,0.06131
370.72953,0.05515
368.66992,0.05049
366.61032,0.04709
364.55071,0.04429
362.49110,0.04259
360.43149,0.04183
358.37188,0.04047
356.31227,0.03881
354.25267,0.03818
352.19306,0.03918
350.13345,0.04193
348.07384,0.04258
346.01423,0.03979
343.95462,0.03728
341.89501,0.03685
339.83541,0.03652
337.77580,0.03539
335.71619,0.03370
333.65658,0.03137
331.59697,0.02890
329.53736,0.02564
327.47775,0.02279
325.41815,0.02193
323.35854,0.01951
321.29893,0.01825
319.23932,0.02018
317.17971,0.02324
315.12010,0.02423
313.06049,0.01905
311.00089,0.00880
308.94128,0.00649
306.88167,0.02046
304.82206,0.03348
302.76245,0.03758
300.70284,0.04415
298.64324,0.04801
296.58363,0.03918
294.52402,0.01764
292.46441,-0.01276
290.40480,-0.01328
288.34519,0.03510
286.28558,0.03569
284.22598,0.02444
282.16637,0.00999
280.10676,-0.00419
278.04715,-0.00216
275.98754,-0.02536
273.92793,-0.00525
271.86832,-0.04093
269.80872,-0.06023
267.74911,-0.00506
265.68950,0.10912
263.62989,0.06746
261.57028,0.04762
259.51067,0.04237
257.45106,0.04764
255.39146,0.06604
253.33185,-0.00083
251.27224,-0.09578
249.21263,-0.10524
247.15302,0.00748
245.09341,0.06579
243.03381,0.05602
240.97420,0.06153
238.91459,0.02773
236.85498,0.01247
234.79537,-0.01208
232.73576,-0.01390
230.67615,0.00879
228.61655,-0.05779
226.55694,-0.05621
224.49733,0.09717
222.43772,0.08623
220.37811,0.01571
218.31850,-0.02079
216.25889,-0.00243
214.19929,-0.05317
212.13968,-0.04590
210.08007,-0.01572
208.02046,0.10190
205.96085,0.06072
203.90124,-0.03831
201.84163,-0.04118
199.78203,0.00059
197.72242,0.00817
195.66281,0.00907
193.60320,0.01720
191.54359,0.06060
189.48398,-0.00507
187.42438,-0.11911
185.36477,-0.08410
183.30516,0.00972
181.24555,0.04966
179.18594,0.05350
177.12633,0.06905
175.06672,0.00805
173.00712,-0.01523
170.94751,0.01032
168.88790,0.01553
166.82829,-0.02605
164.76868,-0.00585
162.70907,-0.01990
160.64946,-0.05795
158.58986,-0.01517
156.53025,0.00774
154.47064,0.00151
152.41103,0.03146
150.35142,-0.00576
148.29181,-0.07808
146.23220,-0.12894
144.17260,-0.06754
142.11299,0.00895
140.05338,0.03917
137.99377,0.10021
135.93416,0.06994
133.87455,-0.02441
131.81495,-0.05856
129.75534,0.01505
127.69573,0.02556
125.63612,0.00208
123.57651,-0.00730
121.51690,0.00287
119.45729,0.05934
117.39769,0.01304
115.33808,0.03844
113.27847,0.05730
111.21886,0.02302
109.15925,0.03890
107.09964,0.02838
105.04003,-0.03468
102.98043,-0.03459
100.92082,-0.02799
98.86121,-0.01538
96.80160,-0.04212
94.74199,-0.01443
92.68238,-0.02109
90.62277,-0.01634
88.56317,-0.02299
86.50356,-0.01154
84.44395,0.01855
82.38434,0.01133
80.32473,-0.01693
78.26512,-0.01895
76.20552,-0.00508
74.14591,0.00922
72.08630,0.02284
70.02669,-0.00988
67.96708,-0.08336
65.90747,-0.00344
63.84786,0.00739
61.78826,0.00500
59.72865,-0.02243
57.66904,-0.01927
55.60943,-0.01216
53.54982,-0.00512
51.49021,-0.00577
49.43060,0.01162
47.37100,0.00471
45.31139,-0.00471
43.25178,-0.00671
41.19217,-0.00253
39.13256,0.01531
37.07295,0.01948
35.01334,0.01340
32.95374,0.00374
30.89413,0.00380
28.83452,-0.00297
26.77491,-0.01940
24.71530,-0.01675
22.65569,0.00242
20.59609,0.00449
18.53648,0.00296
16.47687,-0.00107
14.41726,0.00055
12.35765,0.00342
10.29804,0.00305
8.23843,-0.00094
6.17883,-0.00070
4.11922,-0.00014
2.05961,0.00001
0.00000,-0.00000
