2996.73039,0.00568
2994.67079,0.00581
2992.61118,0.00596
2990.55157,0.00615
2988.49196,0.00647
2986.43235,0.00682
2984.37274,0.00699
2982.31313,0.00700
2980.25353,0.00689
2978.19392,0.00675
2976.13431,0.00689
2974.07470,0.00725
2972.01509,0.00744
2969.95548,0.00743
2967.89587,0.00740
2965.83627,0.00726
2963.77666,0.00703
2961.71705,0.00697
2959.65744,0.00709
2957.59783,0.00726
2955.53822,0.00749
2953.47861,0.00763
2951.41901,0.00750
2949.35940,0.00731
2947.29979,0.00734
2945.24018,0.00752
2943.18057,0.00782
2941.12096,0.00805
2939.06136,0.00807
2937.00175,0.00822
2934.94214,0.00874
2932.88253,0.00935
2930.82292,0.00980
2928.76331,0.00999
2926.70370,0.00997
2924.64410,0.00993
2922.58449,0.00991
2920.52488,0.01001
2918.46527,0.01019
2916.40566,0.00986
2914.34605,0.00877
2912.28644,0.00772
2910.22684,0.00724
2908.16723,0.00717
2906.10762,0.00717
2904.04801,0.00712
2901.98840,0.00707
2899.92879,0.00712
2897.86918,0.00723
2895.80958,0.00728
2893.74997,0.00734
2891.69036,0.00739
2889.63075,0.00733
2887.57114,0.00720
2885.51153,0.00711
2883.45193,0.00706
2881.39232,0.00698
2879.33271,0.00697
2877.27310,0.00715
2875.21349,0.00745
2873.15388,0.00775
2871.09427,0.00780
2869.03467,0.00760
2866.97506,0.00742
2864.91545,0.00732
2862.85584,0.00715
2860.79623,0.00694
2858.73662,0.00692
2856.67701,0.00713
2854.61741,0.00734
2852.55780,0.00753
2850.49819,0.00795
2848.43858,0.00852
2846.37897,0.00854
2844.31936,0.00796
2842.25975,0.00753
2840.20015,0.00749
2838.14054,0.00755
2836.08093,0.00755
2834.02132,0.00756
2831.96171,0.00763
2829.90210,0.00772
2827.84250,0.00783
2825.78289,0.00802
2823.72328,0.00821
2821.66367,0.00831
2819.60406,0.00829
2817.54445,0.00823
2815.48484,0.00836
2813.42524,0.00871
2811.36563,0.00906
2809.30602,0.00927
2807.24641,0.00930
2805.18680,0.00933
2803.12719,0.00953
2801.06758,0.00986
2799.00798,0.01016
2796.94837,0.01027
2794.88876,0.01026
2792.82915,0.01034
2790.76954,0.01060
2788.70993,0.01099
2786.65032,0.01145
2784.59072,0.01181
2782.53111,0.01200
2780.47150,0.01221
2778.41189,0.01253
2776.35228,0.01295
2774.29267,0.01350
2772.23307,0.01414
2770.17346,0.01482
2768.11385,0.01547
2766.05424,0.01609
2763.99463,0.01691
2761.93502,0.01800
2759.87541,0.01918
2757.81581,0.02031
2755.75620,0.02152
2753.69659,0.02291
2751.63698,0.02435
2749.57737,0.02587
2747.51776,0.02772
2745.45815,0.02998
2743.39855,0.03246
2741.33894,0.03517
2739.27933,0.03810
2737.21972,0.04110
2735.16011,0.04440
2733.10050,0.04824
2731.04089,0.05246
2728.98129,0.05701
2726.92168,0.06187
2724.86207,0.06698
2722.80246,0.07256
2720.74285,0.07871
2718.68324,0.08511
2716.62364,0.09170
2714.56403,0.09866
2712.50442,0.10603
2710.44481,0.11367
2708.38520,0.12147
2706.32559,0.12938
2704.26598,0.13731
2702.20638,0.14526
2700.14677,0.15308
2698.08716,0.16081
2696.02755,0.16855
2693.96794,0.17619
2691.90833,0.18379
2689.84872,0.19136
2687.78912,0.19871
2685.72951,0.20586
2683.66990,0.21301
2681.61029,0.22024
2679.55068,0.22744
2677.49107,0.23448
2675.43146,0.24127
2673.37186,0.24796
2671.31225,0.25480
2669.25264,0.26168
2667.19303,0.26841
2665.13342,0.27509
2663.07381,0.28179
2661.01421,0.28838
2658.95460,0.29484
2656.89499,0.30122
2654.83538,0.30757
2652.77577,0.31408
2650.71616,0.32077
2648.65655,0.32725
2646.59695,0.33354
2644.53734,0.33989
2642.47773,0.34624
2640.41812,0.35256
2638.35851,0.35892
2636.29890,0.36529
2634.23929,0.37162
2632.17969,0.37791
2630.12008,0.38431
2628.06047,0.39082
2626.00086,0.39729
2623.94125,0.40367
2621.88164,0.40972
2619.82203,0.41542
2617.76243,0.42122
2615.70282,0.42714
2613.64321,0.43288
2611.58360,0.43866
2609.52399,0.44460
2607.46438,0.45047
2605.40478,0.45605
2603.34517,0.46133
2601.28556,0.46657
2599.22595,0.47181
2597.16634,0.47689
2595.10673,0.48175
2593.04712,0.48636
2590.98752,0.49082
2588.92791,0.49532
2586.86830,0.49977
2584.80869,0.50408
2582.74908,0.50825
2580.68947,0.51237
2578.62986,0.51652
2576.57026,0.52070
2574.51065,0.52463
2572.45104,0.52807
2570.39143,0.53143
2568.33182,0.53494
2566.27221,0.53852
2564.21260,0.54220
2562.15300,0.54587
2560.09339,0.54944
2558.03378,0.55323
2555.97417,0.55710
2553.91456,0.56078
2551.85495,0.56446
2549.79535,0.56810
2547.73574,0.57183
2545.67613,0.57618
2543.61652,0.58077
2541.55691,0.58491
2539.49730,0.58909
2537.43769,0.59354
2535.37809,0.59798
2533.31848,0.60274
2531.25887,0.60768
2529.19926,0.61255
2527.13965,0.61746
2525.08004,0.62269
2523.02043,0.62843
2520.96083,0.63441
2518.90122,0.64025
2516.84161,0.64610
2514.78200,0.65172
2512.72239,0.65704
2510.66278,0.66286
2508.60317,0.66887
2506.54357,0.67448
2504.48396,0.68013
2502.42435,0.68572
2500.36474,0.69094
2498.30513,0.69602
2496.24552,0.70076
2494.18592,0.70508
2492.12631,0.70916
2490.06670,0.71281
2488.00709,0.71584
2485.94748,0.71869
2483.88787,0.72184
2481.82826,0.72465
2479.76866,0.72638
2477.70905,0.72745
2475.64944,0.72835
2473.58983,0.72872
2471.53022,0.72836
2469.47061,0.72769
2467.41100,0.72661
2465.35140,0.72520
2463.29179,0.72405
2461.23218,0.72264
2459.17257,0.72057
2457.11296,0.71818
2455.05335,0.71549
2452.99374,0.71282
2450.93414,0.71043
2448.87453,0.70786
2446.81492,0.70484
2444.75531,0.70209
2442.69570,0.69997
2440.63609,0.69824
2438.57649,0.69668
2436.51688,0.69484
2434.45727,0.69295
2432.39766,0.69161
2430.33805,0.69043
2428.27844,0.68903
2426.21883,0.68788
2424.15923,0.68689
2422.09962,0.68587
2420.04001,0.68527
2417.98040,0.68518
2415.92079,0.68497
2413.86118,0.68425
2411.80157,0.68363
2409.74197,0.68344
2407.68236,0.68308
2405.62275,0.68246
2403.56314,0.68190
2401.50353,0.68129
2399.44392,0.68023
2397.38431,0.67867
2395.32471,0.67686
2393.26510,0.67473
2391.20549,0.67216
2389.14588,0.66921
2387.08627,0.66597
2385.02666,0.66241
2382.96706,0.65811
2380.90745,0.65295
2378.84784,0.64735
2376.78823,0.64161
2374.72862,0.63552
2372.66901,0.62870
2370.60940,0.62123
2368.54980,0.61335
2366.49019,0.60523
2364.43058,0.59699
2362.37097,0.58817
2360.31136,0.57851
2358.25175,0.56832
2356.19214,0.55784
2354.13254,0.54722
2352.07293,0.53620
2350.01332,0.52491
2347.95371,0.51349
2345.89410,0.50157
2343.83449,0.48937
2341.77488,0.47753
2339.71528,0.46578
2337.65567,0.45371
2335.59606,0.44154
2333.53645,0.42992
2331.47684,0.41875
2329.41723,0.40745
2327.35763,0.39583
2325.29802,0.38362
2323.23841,0.37076
2321.17880,0.35817
2319.11919,0.34644
2317.05958,0.33519
2314.99997,0.32410
2312.94037,0.31328
2310.88076,0.30307
2308.82115,0.29366
2306.76154,0.28442
2304.70193,0.27519
2302.64232,0.26634
2300.58271,0.25778
2298.52311,0.24930
2296.46350,0.24086
2294.40389,0.23262
2292.34428,0.22483
2290.28467,0.21742
2288.22506,0.20999
2286.16545,0.20271
2284.10585,0.19583
2282.04624,0.18915
2279.98663,0.18276
2277.92702,0.17671
2275.86741,0.17076
2273.80780,0.16479
2271.74820,0.15913
2269.68859,0.15418
2267.62898,0.15005
2265.56937,0.14598
2263.50976,0.14137
2261.45015,0.13688
2259.39054,0.13256
2257.33094,0.12812
2255.27133,0.12403
2253.21172,0.12019
2251.15211,0.11630
2249.09250,0.11266
2247.03289,0.10921
2244.97328,0.10585
2242.91368,0.10283
2240.85407,0.10007
2238.79446,0.09729
2236.73485,0.09431
2234.67524,0.09148
2232.61563,0.08901
2230.55602,0.08636
2228.49642,0.08348
2226.43681,0.08080
2224.37720,0.07837
2222.31759,0.07596
2220.25798,0.07370
2218.19837,0.07182
2216.13877,0.06997
2214.07916,0.06846
2212.01955,0.06738
2209.95994,0.06560
2207.90033,0.06294
2205.84072,0.06015
2203.78111,0.05737
2201.72151,0.05519
2199.66190,0.05410
2197.60229,0.05315
2195.54268,0.05184
2193.48307,0.05048
2191.42346,0.04923
2189.36385,0.04789
2187.30425,0.04619
2185.24464,0.04438
2183.18503,0.04295
2181.12542,0.04212
2179.06581,0.04164
2177.00620,0.04081
2174.94659,0.03921
2172.88699,0.03750
2170.82738,0.03624
2168.76777,0.03516
2166.70816,0.03376
2164.64855,0.03186
2162.58894,0.03004
2160.52934,0.02938
2158.46973,0.02972
2156.41012,0.02975
2154.35051,0.02927
2152.29090,0.02871
2150.23129,0.02823
2148.17168,0.02800
2146.11208,0.02757
2144.05247,0.02655
2141.99286,0.02597
2139.93325,0.02618
2137.87364,0.02613
2135.81403,0.02583
2133.75442,0.02570
2131.69482,0.02543
2129.63521,0.02500
2127.57560,0.02458
2125.51599,0.02409
2123.45638,0.02355
2121.39677,0.02294
2119.33716,0.02237
2117.27756,0.02194
2115.21795,0.02157
2113.15834,0.02134
2111.09873,0.02114
2109.03912,0.02073
2106.97951,0.02003
2104.91991,0.01932
2102.86030,0.01895
2100.80069,0.01875
2098.74108,0.01835
2096.68147,0.01773
2094.62186,0.01723
2092.56225,0.01711
2090.50265,0.01686
2088.44304,0.01626
2086.38343,0.01577
2084.32382,0.01537
2082.26421,0.01503
2080.20460,0.01456
2078.14499,0.01369
2076.08539,0.01318
2074.02578,0.01333
2071.96617,0.01354
2069.90656,0.01349
2067.84695,0.01330
2065.78734,0.01318
2063.72773,0.01312
2061.66813,0.01261
2059.60852,0.01161
2057.54891,0.01111
2055.48930,0.01105
2053.42969,0.01034
2051.37008,0.00923
2049.31048,0.00884
2047.25087,0.00915
2045.19126,0.00926
2043.13165,0.00893
2041.07204,0.00815
2039.01243,0.00721
2036.95282,0.00689
2034.89322,0.00743
2032.83361,0.00819
2030.77400,0.00843
2028.71439,0.00816
2026.65478,0.00761
2024.59517,0.00691
2022.53556,0.00627
2020.47596,0.00626
2018.41635,0.00708
2016.35674,0.00780
2014.29713,0.00785
2012.23752,0.00760
2010.17791,0.00731
2008.11830,0.00720
2006.05870,0.00696
2003.99909,0.00637
2001.93948,0.00611
1999.87987,0.00643
1997.82026,0.00686
1995.76065,0.00669
1993.70105,0.00577
1991.64144,0.00557
1989.58183,0.00632
1987.52222,0.00655
1985.46261,0.00621
1983.40300,0.00629
1981.34339,0.00658
1979.28379,0.00624
1977.22418,0.00592
1975.16457,0.00607
1973.10496,0.00599
1971.04535,0.00567
1968.98574,0.00516
1966.92613,0.00470
1964.86653,0.00486
1962.80692,0.00540
1960.74731,0.00603
1958.68770,0.00649
1956.62809,0.00638
1954.56848,0.00604
1952.50887,0.00599
1950.44927,0.00621
1948.38966,0.00641
1946.33005,0.00634
1944.27044,0.00603
1942.21083,0.00591
1940.15122,0.00622
1938.09162,0.00658
1936.03201,0.00659
1933.97240,0.00656
1931.91279,0.00680
1929.85318,0.00692
1927.79357,0.00659
1925.73396,0.00616
1923.67436,0.00615
1921.61475,0.00642
1919.55514,0.00657
1917.49553,0.00657
1915.43592,0.00652
1913.37631,0.00656
1911.31670,0.00666
1909.25710,0.00656
1907.19749,0.00630
1905.13788,0.00628
1903.07827,0.00656
1901.01866,0.00680
1898.95905,0.00686
1896.89944,0.00681
1894.83984,0.00674
1892.78023,0.00686
1890.72062,0.00709
1888.66101,0.00715
1886.60140,0.00716
1884.54179,0.00718
1882.48219,0.00707
1880.42258,0.00688
1878.36297,0.00682
1876.30336,0.00683
1874.24375,0.00683
1872.18414,0.00683
1870.12453,0.00701
1868.06493,0.00734
1866.00532,0.00748
1863.94571,0.00743
1861.88610,0.00745
1859.82649,0.00754
1857.76688,0.00754
1855.70727,0.00757
1853.64767,0.00775
1851.58806,0.00788
1849.52845,0.00792
1847.46884,0.00800
1845.40923,0.00813
1843.34962,0.00820
1841.29002,0.00813
1839.23041,0.00807
1837.17080,0.00817
1835.11119,0.00839
1833.05158,0.00853
1830.99197,0.00855
1828.93236,0.00856
1826.87276,0.00874
1824.81315,0.00899
1822.75354,0.00910
1820.69393,0.00915
1818.63432,0.00919
1816.57471,0.00912
1814.51510,0.00902
1812.45550,0.00909
1810.39589,0.00932
1808.33628,0.00951
1806.27667,0.00955
1804.21706,0.00955
1802.15745,0.00968
1800.09784,0.00984
1798.03824,0.00984
1795.97863,0.00991
1793.91902,0.01018
1791.85941,0.01044
1789.79980,0.01051
1787.74019,0.01052
1785.68059,0.01061
1783.62098,0.01073
1781.56137,0.01077
1779.50176,0.01071
1777.44215,0.01073
1775.38254,0.01087
1773.32293,0.01101
1771.26333,0.01123
1769.20372,0.01149
1767.14411,0.01158
1765.08450,0.01157
1763.02489,0.01168
1760.96528,0.01190
1758.90567,0.01205
1756.84607,0.01219
1754.78646,0.01230
1752.72685,0.01234
1750.66724,0.01241
1748.60763,0.01251
1746.54802,0.01267
1744.48841,0.01297
1742.42881,0.01322
1740.36920,0.01321
1738.30959,0.01313
1736.24998,0.01323
1734.19037,0.01353
1732.13076,0.01386
1730.07116,0.01397
1728.01155,0.01394
1725.95194,0.01398
1723.89233,0.01420
1721.83272,0.01455
1719.77311,0.01490
1717.71350,0.01529
1715.65390,0.01583
1713.59429,0.01635
1711.53468,0.01676
1709.47507,0.01707
1707.41546,0.01734
1705.35585,0.01770
1703.29624,0.01800
1701.23664,0.01836
1699.17703,0.01893
1697.11742,0.01937
1695.05781,0.01985
1692.99820,0.02054
1690.93859,0.02139
1688.87898,0.02235
1686.81938,0.02316
1684.75977,0.02419
1682.70016,0.02557
1680.64055,0.02685
1678.58094,0.02833
1676.52133,0.03036
1674.46173,0.03285
1672.40212,0.03510
1670.34251,0.03747
1668.28290,0.04013
1666.22329,0.04233
1664.16368,0.04466
1662.10407,0.04771
1660.04447,0.05053
1657.98486,0.05261
1655.92525,0.05420
1653.86564,0.05569
1651.80603,0.05656
1649.74642,0.05622
1647.68681,0.05537
1645.62721,0.05409
1643.56760,0.05260
1641.50799,0.05097
1639.44838,0.04928
1637.38877,0.04737
1635.32916,0.04473
1633.26955,0.04205
1631.20995,0.03981
1629.15034,0.03761
1627.09073,0.03566
1625.03112,0.03422
1622.97151,0.03311
1620.91190,0.03225
1618.85230,0.03168
1616.79269,0.03138
1614.73308,0.03128
1612.67347,0.03118
1610.61386,0.03115
1608.55425,0.03122
1606.49464,0.03118
1604.43504,0.03104
1602.37543,0.03094
1600.31582,0.03085
1598.25621,0.03074
1596.19660,0.03075
1594.13699,0.03105
1592.07738,0.03156
1590.01778,0.03210
1587.95817,0.03257
1585.89856,0.03283
1583.83895,0.03274
1581.77934,0.03232
1579.71973,0.03173
1577.66012,0.03112
1575.60052,0.03068
1573.54091,0.03050
1571.48130,0.03048
1569.42169,0.03060
1567.36208,0.03091
1565.30247,0.03135
1563.24287,0.03178
1561.18326,0.03228
1559.12365,0.03333
1557.06404,0.03448
1555.00443,0.03530
1552.94482,0.03632
1550.88521,0.03750
1548.82561,0.03873
1546.76600,0.03975
1544.70639,0.04046
1542.64678,0.04082
1540.58717,0.04071
1538.52756,0.04000
1536.46795,0.03901
1534.40835,0.03776
1532.34874,0.03630
1530.28913,0.03517
1528.22952,0.03432
1526.16991,0.03352
1524.11030,0.03278
1522.05069,0.03219
1519.99109,0.03182
1517.93148,0.03168
1515.87187,0.03165
1513.81226,0.03146
1511.75265,0.03102
1509.69304,0.03053
1507.63344,0.03003
1505.57383,0.02951
1503.51422,0.02923
1501.45461,0.02916
1499.39500,0.02917
1497.33539,0.02920
1495.27578,0.02928
1493.21618,0.02939
1491.15657,0.02948
1489.09696,0.02965
1487.03735,0.02997
1484.97774,0.03035
1482.91813,0.03082
1480.85852,0.03150
1478.79892,0.03225
1476.73931,0.03299
1474.67970,0.03375
1472.62009,0.03459
1470.56048,0.03538
1468.50087,0.03591
1466.44126,0.03635
1464.38166,0.03681
1462.32205,0.03721
1460.26244,0.03755
1458.20283,0.03785
1456.14322,0.03778
1454.08361,0.03725
1452.02401,0.03663
1449.96440,0.03607
1447.90479,0.03555
1445.84518,0.03499
1443.78557,0.03433
1441.72596,0.03354
1439.66635,0.03272
1437.60675,0.03187
1435.54714,0.03080
1433.48753,0.02979
1431.42792,0.02892
1429.36831,0.02806
1427.30870,0.02734
1425.24909,0.02675
1423.18949,0.02615
1421.12988,0.02555
1419.07027,0.02492
1417.01066,0.02431
1414.95105,0.02378
1412.89144,0.02332
1410.83183,0.02292
1408.77223,0.02256
1406.71262,0.02227
1404.65301,0.02212
1402.59340,0.02214
1400.53379,0.02221
1398.47418,0.02209
1396.41458,0.02166
1394.35497,0.02100
1392.29536,0.02037
1390.23575,0.01995
1388.17614,0.01965
1386.11653,0.01929
1384.05692,0.01881
1381.99732,0.01837
1379.93771,0.01810
1377.87810,0.01793
1375.81849,0.01777
1373.75888,0.01764
1371.69927,0.01763
1369.63966,0.01768
1367.58006,0.01771
1365.52045,0.01775
1363.46084,0.01776
1361.40123,0.01771
1359.34162,0.01765
1357.28201,0.01765
1355.22240,0.01770
1353.16280,0.01781
1351.10319,0.01798
1349.04358,0.01818
1346.98397,0.01836
1344.92436,0.01852
1342.86475,0.01875
1340.80515,0.01899
1338.74554,0.01915
1336.68593,0.01920
1334.62632,0.01918
1332.56671,0.01910
1330.50710,0.01909
1328.44749,0.01917
1326.38789,0.01929
1324.32828,0.01939
1322.26867,0.01947
1320.20906,0.01958
1318.14945,0.01976
1316.08984,0.02003
1314.03023,0.02034
1311.97063,0.02058
1309.91102,0.02078
1307.85141,0.02100
1305.79180,0.02129
1303.73219,0.02161
1301.67258,0.02195
1299.61297,0.02235
1297.55337,0.02281
1295.49376,0.02327
1293.43415,0.02372
1291.37454,0.02424
1289.31493,0.02484
1287.25532,0.02549
1285.19572,0.02622
1283.13611,0.02701
1281.07650,0.02783
1279.01689,0.02872
1276.95728,0.02970
1274.89767,0.03080
1272.83806,0.03202
1270.77846,0.03340
1268.71885,0.03502
1266.65924,0.03688
1264.59963,0.03895
1262.54002,0.04124
1260.48041,0.04374
1258.42080,0.04646
1256.36120,0.04942
1254.30159,0.05270
1252.24198,0.05644
1250.18237,0.06055
1248.12276,0.06498
1246.06315,0.06984
1244.00354,0.07521
1241.94394,0.08101
1239.88433,0.08723
1237.82472,0.09380
1235.76511,0.10064
1233.70550,0.10774
1231.64589,0.11512
1229.58629,0.12274
1227.52668,0.13043
1225.46707,0.13815
1223.40746,0.14592
1221.34785,0.15372
1219.28824,0.16140
1217.22863,0.16872
1215.16903,0.17549
1213.10942,0.18160
1211.04981,0.18687
1208.99020,0.19098
1206.93059,0.19367
1204.87098,0.19473
1202.81137,0.19404
1200.75177,0.19153
1198.69216,0.18719
1196.63255,0.18122
1194.57294,0.17397
1192.51333,0.16578
1190.45372,0.15702
1188.39411,0.14810
1186.33451,0.13931
1184.27490,0.13091
1182.21529,0.12302
1180.15568,0.11571
1178.09607,0.10901
1176.03646,0.10292
1173.97686,0.09737
1171.91725,0.09227
1169.85764,0.08765
1167.79803,0.08351
1165.73842,0.07975
1163.67881,0.07631
1161.61920,0.07314
1159.55960,0.07028
1157.49999,0.06772
1155.44038,0.06537
1153.38077,0.06320
1151.32116,0.06116
1149.26155,0.05916
1147.20194,0.05730
1145.14234,0.05574
1143.08273,0.05444
1141.02312,0.05327
1138.96351,0.05213
1136.90390,0.05099
1134.84429,0.04989
1132.78468,0.04892
1130.72508,0.04811
1128.66547,0.04738
1126.60586,0.04669
1124.54625,0.04600
1122.48664,0.04531
1120.42703,0.04466
1118.36743,0.04406
1116.30782,0.04350
1114.24821,0.04301
1112.18860,0.04256
1110.12899,0.04214
1108.06938,0.04185
1106.00977,0.04164
1103.95017,0.04133
1101.89056,0.04094
1099.83095,0.04055
1097.77134,0.04021
1095.71173,0.03997
1093.65212,0.03976
1091.59251,0.03949
1089.53291,0.03919
1087.47330,0.03887
1085.41369,0.03853
1083.35408,0.03822
1081.29447,0.03799
1079.23486,0.03781
1077.17525,0.03765
1075.11565,0.03746
1073.05604,0.03722
1070.99643,0.03697
1068.93682,0.03673
1066.87721,0.03652
1064.81760,0.03641
1062.75800,0.03631
1060.69839,0.03615
1058.63878,0.03601
1056.57917,0.03596
1054.51956,0.03588
1052.45995,0.03572
1050.40034,0.03557
1048.34074,0.03536
1046.28113,0.03508
1044.22152,0.03482
1042.16191,0.03467
1040.10230,0.03463
1038.04269,0.03462
1035.98308,0.03461
1033.92348,0.03464
1031.86387,0.03462
1029.80426,0.03450
1027.74465,0.03437
1025.68504,0.03430
1023.62543,0.03429
1021.56582,0.03428
1019.50622,0.03418
1017.44661,0.03406
1015.38700,0.03402
1013.32739,0.03396
1011.26778,0.03390
1009.20817,0.03391
1007.14857,0.03389
1005.08896,0.03381
1003.02935,0.03375
1000.96974,0.03363
998.91013,0.03346
996.85052,0.03338
994.79091,0.03338
992.73131,0.03332
990.67170,0.03318
988.61209,0.03307
986.55248,0.03302
984.49287,0.03296
982.43326,0.03292
980.37365,0.03294
978.31405,0.03298
976.25444,0.03303
974.19483,0.03304
972.13522,0.03294
970.07561,0.03283
968.01600,0.03278
965.95639,0.03273
963.89679,0.03269
961.83718,0.03268
959.77757,0.03264
957.71796,0.03254
955.65835,0.03249
953.59874,0.03254
951.53914,0.03263
949.47953,0.03262
947.41992,0.03253
945.36031,0.03239
943.30070,0.03226
941.24109,0.03222
939.18148,0.03225
937.12188,0.03232
935.06227,0.03235
933.00266,0.03232
930.94305,0.03227
928.88344,0.03219
926.82383,0.03209
924.76422,0.03203
922.70462,0.03194
920.64501,0.03186
918.58540,0.03183
916.52579,0.03181
914.46618,0.03179
912.40657,0.03181
910.34696,0.03179
908.28736,0.03177
906.22775,0.03176
904.16814,0.03168
902.10853,0.03163
900.04892,0.03158
897.98931,0.03149
895.92971,0.03145
893.87010,0.03148
891.81049,0.03148
889.75088,0.03145
887.69127,0.03142
885.63166,0.03135
883.57205,0.03129
881.51245,0.03126
879.45284,0.03118
877.39323,0.03113
875.33362,0.03118
873.27401,0.03125
871.21440,0.03129
869.15479,0.03127
867.09519,0.03123
865.03558,0.03123
862.97597,0.03125
860.91636,0.03121
858.85675,0.03121
856.79714,0.03134
854.73753,0.03146
852.67793,0.03141
850.61832,0.03135
848.55871,0.03141
846.49910,0.03148
844.43949,0.03147
842.37988,0.03142
840.32028,0.03147
838.26067,0.03163
836.20106,0.03175
834.14145,0.03176
832.08184,0.03172
830.02223,0.03167
827.96262,0.03170
825.90302,0.03177
823.84341,0.03189
821.78380,0.03199
819.72419,0.03202
817.66458,0.03203
815.60497,0.03207
813.54536,0.03210
811.48576,0.03215
809.42615,0.03232
807.36654,0.03247
805.30693,0.03260
803.24732,0.03282
801.18771,0.03297
799.12810,0.03298
