2998.79000,0.01592
2997.76020,0.01579
2996.73039,0.01574
2995.70059,0.01606
2994.67079,0.01649
2993.64098,0.01660
2992.61118,0.01649
2991.58137,0.01651
2990.55157,0.01667
2989.52176,0.01662
2988.49196,0.01646
2987.46216,0.01671
2986.43235,0.01719
2985.40255,0.01747
2984.37274,0.01762
2983.34294,0.01760
2982.31313,0.01749
2981.28333,0.01770
2980.25353,0.01803
2979.22372,0.01805
2978.19392,0.01799
2977.16411,0.01804
2976.13431,0.01805
2975.10450,0.01808
2974.07470,0.01810
2973.04490,0.01804
2972.01509,0.01815
2970.98529,0.01863
2969.95548,0.01923
2968.92568,0.01951
2967.89587,0.01937
2966.86607,0.01916
2965.83627,0.01904
2964.80646,0.01887
2963.77666,0.01888
2962.74685,0.01923
2961.71705,0.01946
2960.68724,0.01948
2959.65744,0.01964
2958.62764,0.01977
2957.59783,0.01966
2956.56803,0.01952
2955.53822,0.01929
2954.50842,0.01896
2953.47861,0.01896
2952.44881,0.01893
2951.41901,0.01868
2950.38920,0.01882
2949.35940,0.01924
2948.32959,0.01945
2947.29979,0.01954
2946.26998,0.01966
2945.24018,0.01954
2944.21038,0.01917
2943.18057,0.01894
2942.15077,0.01885
2941.12096,0.01894
2940.09116,0.01926
2939.06136,0.01942
2938.03155,0.01918
2937.00175,0.01901
2935.97194,0.01929
2934.94214,0.01946
2933.91233,0.01919
2932.88253,0.01920
2931.85273,0.01958
2930.82292,0.01977
2929.79312,0.01966
2928.76331,0.01929
2927.73351,0.01877
2926.70370,0.01849
2925.67390,0.01855
2924.64410,0.01864
2923.61429,0.01864
2922.58449,0.01845
2921.55468,0.01812
2920.52488,0.01824
2919.49507,0.01860
2918.46527,0.01850
2917.43547,0.01817
2916.40566,0.01795
2915.37586,0.01786
2914.34605,0.01792
2913.31625,0.01797
2912.28644,0.01780
2911.25664,0.01744
2910.22684,0.01719
2909.19703,0.01719
2908.16723,0.01715
2907.13742,0.01692
2906.10762,0.01668
2905.07781,0.01650
2904.04801,0.01639
2903.01821,0.01647
2901.98840,0.01670
2900.95860,0.01668
2899.92879,0.01645
2898.89899,0.01615
2897.86918,0.01593
2896.83938,0.01587
2895.80958,0.01578
2894.77977,0.01577
2893.74997,0.01600
2892.72016,0.01618
2891.69036,0.01616
2890.66055,0.01613
2889.63075,0.01608
2888.60095,0.01589
2887.57114,0.01571
2886.54134,0.01572
2885.51153,0.01578
2884.48173,0.01558
2883.45193,0.01531
2882.42212,0.01527
2881.39232,0.01544
2880.36251,0.01561
2879.33271,0.01548
2878.30290,0.01531
2877.27310,0.01541
2876.24330,0.01536
2875.21349,0.01514
2874.18369,0.01522
2873.15388,0.01523
2872.12408,0.01493
2871.09427,0.01483
2870.06447,0.01494
2869.03467,0.01485
2868.00486,0.01446
2866.97506,0.01399
2865.94525,0.01381
2864.91545,0.01391
2863.88564,0.01391
2862.85584,0.01371
2861.82604,0.01359
2860.79623,0.01379
2859.76643,0.01413
2858.73662,0.01411
2857.70682,0.01373
2856.67701,0.01345
2855.64721,0.01356
2854.61741,0.01391
2853.58760,0.01421
2852.55780,0.01418
2851.52799,0.01383
2850.49819,0.01348
2849.46838,0.01347
2848.43858,0.01362
2847.40878,0.01348
2846.37897,0.01324
2845.34917,0.01330
2844.31936,0.01343
2843.28956,0.01345
2842.25975,0.01337
2841.22995,0.01311
2840.20015,0.01292
2839.17034,0.01291
2838.14054,0.01276
2837.11073,0.01247
2836.08093,0.01228
2835.05112,0.01242
2834.02132,0.01273
2832.99152,0.01283
2831.96171,0.01271
2830.93191,0.01277
2829.90210,0.01306
2828.87230,0.01311
2827.84250,0.01285
2826.81269,0.01265
2825.78289,0.01272
2824.75308,0.01292
2823.72328,0.01301
2822.69347,0.01296
2821.66367,0.01286
2820.63387,0.01282
2819.60406,0.01306
2818.57426,0.01333
2817.54445,0.01333
2816.51465,0.01319
2815.48484,0.01308
2814.45504,0.01299
2813.42524,0.01289
2812.39543,0.01281
2811.36563,0.01285
2810.33582,0.01291
2809.30602,0.01291
2808.27621,0.01308
2807.24641,0.01333
2806.21661,0.01335
2805.18680,0.01313
2804.15700,0.01293
2803.12719,0.01290
2802.09739,0.01304
2801.06758,0.01335
2800.03778,0.01360
2799.00798,0.01371
2797.97817,0.01363
2796.94837,0.01336
2795.91856,0.01323
2794.88876,0.01340
2793.85895,0.01361
2792.82915,0.01367
2791.79935,0.01380
2790.76954,0.01404
2789.73974,0.01427
2788.70993,0.01457
2787.68013,0.01482
2786.65032,0.01475
2785.62052,0.01436
2784.59072,0.01411
2783.56091,0.01436
2782.53111,0.01483
2781.50130,0.01500
2780.47150,0.01494
2779.44169,0.01508
2778.41189,0.01530
2777.38209,0.01544
2776.35228,0.01570
2775.32248,0.01583
2774.29267,0.01573
2773.26287,0.01594
2772.23307,0.01643
2771.20326,0.01675
2770.17346,0.01695
2769.14365,0.01731
2768.11385,0.01772
2767.08404,0.01800
2766.05424,0.01821
2765.02444,0.01849
2763.99463,0.01889
2762.96483,0.01927
2761.93502,0.01955
2760.90522,0.01997
2759.87541,0.02068
2758.84561,0.02129
2757.81581,0.02163
2756.78600,0.02210
2755.75620,0.02273
2754.72639,0.02330
2753.69659,0.02399
2752.66678,0.02485
2751.63698,0.02561
2750.60718,0.02616
2749.57737,0.02687
2748.54757,0.02792
2747.51776,0.02892
2746.48796,0.02977
2745.45815,0.03059
2744.42835,0.03143
2743.39855,0.03253
2742.36874,0.03385
2741.33894,0.03502
2740.30913,0.03612
2739.27933,0.03739
2738.24952,0.03878
2737.21972,0.04030
2736.18992,0.04191
2735.16011,0.04342
2734.13031,0.04491
2733.10050,0.04657
2732.07070,0.04849
2731.04089,0.05040
2730.01109,0.05231
2728.98129,0.05446
2727.95148,0.05673
2726.92168,0.05900
2725.89187,0.06131
2724.86207,0.06391
2723.83226,0.06684
2722.80246,0.06958
2721.77266,0.07201
2720.74285,0.07466
2719.71305,0.07771
2718.68324,0.08091
2717.65344,0.08393
2716.62364,0.08681
2715.59383,0.08988
2714.56403,0.09321
2713.53422,0.09674
2712.50442,0.10029
2711.47461,0.10374
2710.44481,0.10723
2709.41501,0.11068
2708.38520,0.11412
2707.35540,0.11763
2706.32559,0.12132
2705.29579,0.12516
2704.26598,0.12888
2703.23618,0.13254
2702.20638,0.13622
2701.17657,0.13986
2700.14677,0.14351
2699.11696,0.14716
2698.08716,0.15086
2697.05735,0.15459
2696.02755,0.15824
2694.99775,0.16186
2693.96794,0.16548
2692.93814,0.16900
2691.90833,0.17254
2690.87853,0.17615
2689.84872,0.17978
2688.81892,0.18338
2687.78912,0.18694
2686.75931,0.19039
2685.72951,0.19382
2684.69970,0.19724
2683.66990,0.20050
2682.64009,0.20369
2681.61029,0.20701
2680.58049,0.21036
2679.55068,0.21368
2678.52088,0.21712
2677.49107,0.22058
2676.46127,0.22379
2675.43146,0.22679
2674.40166,0.22966
2673.37186,0.23280
2672.34205,0.23644
2671.31225,0.24009
2670.28244,0.24357
2669.25264,0.24695
2668.22283,0.25008
2667.19303,0.25301
2666.16323,0.25600
2665.13342,0.25924
2664.10362,0.26269
2663.07381,0.26599
2662.04401,0.26897
2661.01421,0.27202
2659.98440,0.27527
2658.95460,0.27846
2657.92479,0.28163
2656.89499,0.28483
2655.86518,0.28802
2654.83538,0.29114
2653.80558,0.29423
2652.77577,0.29739
2651.74597,0.30039
2650.71616,0.30329
2649.68636,0.30642
2648.65655,0.30966
2647.62675,0.31281
2646.59695,0.31603
2645.56714,0.31930
2644.53734,0.32236
2643.50753,0.32541
2642.47773,0.32862
2641.44792,0.33180
2640.41812,0.33492
2639.38832,0.33815
2638.35851,0.34143
2637.32871,0.34456
2636.29890,0.34754
2635.26910,0.35038
2634.23929,0.35330
2633.20949,0.35645
2632.17969,0.35951
2631.14988,0.36236
2630.12008,0.36534
2629.09027,0.36857
2628.06047,0.37192
2627.03066,0.37541
2626.00086,0.37887
2624.97106,0.38205
2623.94125,0.38505
2622.91145,0.38782
2621.88164,0.39042
2620.85184,0.39327
2619.82203,0.39662
2618.79223,0.40009
2617.76243,0.40307
2616.73262,0.40579
2615.70282,0.40871
2614.67301,0.41179
2613.64321,0.41501
2612.61340,0.41830
2611.58360,0.42137
2610.55380,0.42420
2609.52399,0.42699
2608.49419,0.42959
2607.46438,0.43189
2606.43458,0.43434
2605.40478,0.43726
2604.37497,0.44059
2603.34517,0.44397
2602.31536,0.44688
2601.28556,0.44914
2600.25575,0.45112
2599.22595,0.45351
2598.19615,0.45676
2597.16634,0.46044
2596.13654,0.46389
2595.10673,0.46676
2594.07693,0.46883
2593.04712,0.47033
2592.01732,0.47230
2590.98752,0.47513
2589.95771,0.47811
2588.92791,0.48085
2587.89810,0.48366
2586.86830,0.48646
2585.83849,0.48895
2584.80869,0.49130
2583.77889,0.49357
2582.74908,0.49586
2581.71928,0.49825
2580.68947,0.50038
2579.65967,0.50214
2578.62986,0.50391
2577.60006,0.50615
2576.57026,0.50886
2575.54045,0.51145
2574.51065,0.51367
2573.48084,0.51575
2572.45104,0.51788
2571.42123,0.52047
2570.39143,0.52324
2569.36163,0.52561
2568.33182,0.52798
2567.30202,0.53033
2566.27221,0.53234
2565.24241,0.53411
2564.21260,0.53583
2563.18280,0.53801
2562.15300,0.54063
2561.12319,0.54309
2560.09339,0.54518
2559.06358,0.54674
2558.03378,0.54824
2557.00397,0.55030
2555.97417,0.55255
2554.94437,0.55471
2553.91456,0.55723
2552.88476,0.56015
2551.85495,0.56256
2550.82515,0.56418
2549.79535,0.56588
2548.76554,0.56819
2547.73574,0.57070
2546.70593,0.57295
2545.67613,0.57517
2544.64632,0.57764
2543.61652,0.58032
2542.58672,0.58280
2541.55691,0.58506
2540.52711,0.58773
2539.49730,0.59053
2538.46750,0.59273
2537.43769,0.59477
2536.40789,0.59730
2535.37809,0.60027
2534.34828,0.60356
2533.31848,0.60622
2532.28867,0.60800
2531.25887,0.61062
2530.22906,0.61420
2529.19926,0.61714
2528.16946,0.61930
2527.13965,0.62140
2526.10985,0.62385
2525.08004,0.62667
2524.05024,0.62985
2523.02043,0.63308
2521.99063,0.63577
2520.96083,0.63861
2519.93102,0.64213
2518.90122,0.64537
2517.87141,0.64822
2516.84161,0.65122
2515.81180,0.65429
2514.78200,0.65699
2513.75220,0.65946
2512.72239,0.66236
2511.69259,0.66562
2510.66278,0.66877
2509.63298,0.67200
2508.60317,0.67545
2507.57337,0.67844
2506.54357,0.68058
2505.51376,0.68266
2504.48396,0.68531
2503.45415,0.68785
2502.42435,0.69008
2501.39455,0.69286
2500.36474,0.69642
2499.33494,0.69979
2498.30513,0.70214
2497.27533,0.70387
2496.24552,0.70594
2495.21572,0.70860
2494.18592,0.71117
2493.15611,0.71313
2492.12631,0.71473
2491.09650,0.71620
2490.06670,0.71765
2489.03689,0.71950
2488.00709,0.72155
2486.97729,0.72310
2485.94748,0.72444
2484.91768,0.72609
2483.88787,0.72764
2482.85807,0.72876
2481.82826,0.73010
2480.79846,0.73159
2479.76866,0.73206
2478.73885,0.73160
2477.70905,0.73135
2476.67924,0.73159
2475.64944,0.73162
2474.61963,0.73126
2473.58983,0.73129
2472.56003,0.73184
2471.53022,0.73208
2470.50042,0.73190
2469.47061,0.73149
2468.44081,0.73068
2467.41100,0.72975
2466.38120,0.72913
2465.35140,0.72875
2464.32159,0.72823
2463.29179,0.72751
2462.26198,0.72683
2461.23218,0.72565
2460.20237,0.72384
2459.17257,0.72238
2458.14277,0.72125
2457.11296,0.71994
2456.08316,0.71833
2455.05335,0.71634
2454.02355,0.71443
2452.99374,0.71287
2451.96394,0.71143
2450.93414,0.70995
2449.90433,0.70864
2448.87453,0.70739
2447.84472,0.70546
2446.81492,0.70334
2445.78512,0.70209
2444.75531,0.70143
2443.72551,0.70054
2442.69570,0.69901
2441.66590,0.69715
2440.63609,0.69550
2439.60629,0.69405
2438.57649,0.69275
2437.54668,0.69150
2436.51688,0.69005
2435.48707,0.68837
2434.45727,0.68658
2433.42746,0.68529
2432.39766,0.68457
2431.36786,0.68347
2430.33805,0.68180
2429.30825,0.68033
2428.27844,0.67953
2427.24864,0.67887
2426.21883,0.67757
2425.18903,0.67604
2424.15923,0.67492
2423.12942,0.67397
2422.09962,0.67324
2421.06981,0.67308
2420.04001,0.67299
2419.01020,0.67226
2417.98040,0.67129
2416.95060,0.67062
2415.92079,0.66981
2414.89099,0.66874
2413.86118,0.66797
2412.83138,0.66715
2411.80157,0.66610
2410.77177,0.66546
2409.74197,0.66489
2408.71216,0.66394
2407.68236,0.66285
2406.65255,0.66187
2405.62275,0.66095
2404.59294,0.66000
2403.56314,0.65904
2402.53334,0.65793
2401.50353,0.65660
2400.47373,0.65553
2399.44392,0.65479
2398.41412,0.65396
2397.38431,0.65285
2396.35451,0.65126
2395.32471,0.64945
2394.29490,0.64779
2393.26510,0.64600
2392.23529,0.64382
2391.20549,0.64160
2390.17569,0.63956
2389.14588,0.63740
2388.11608,0.63529
2387.08627,0.63327
2386.05647,0.63072
2385.02666,0.62735
2383.99686,0.62382
2382.96706,0.62100
2381.93725,0.61883
2380.90745,0.61658
2379.87764,0.61350
2378.84784,0.60956
2377.81803,0.60560
2376.78823,0.60212
2375.75843,0.59881
2374.72862,0.59540
2373.69882,0.59160
2372.66901,0.58723
2371.63921,0.58298
2370.60940,0.57884
2369.57960,0.57445
2368.54980,0.57001
2367.51999,0.56537
2366.49019,0.56086
2365.46038,0.55676
2364.43058,0.55251
2363.40077,0.54783
2362.37097,0.54259
2361.34117,0.53697
2360.31136,0.53116
2359.28156,0.52559
2358.25175,0.52083
2357.22195,0.51654
2356.19214,0.51176
2355.16234,0.50607
2354.13254,0.50033
2353.10273,0.49523
2352.07293,0.49027
2351.04312,0.48491
2350.01332,0.47900
2348.98351,0.47221
2347.95371,0.46504
2346.92391,0.45886
2345.89410,0.45369
2344.86430,0.44840
2343.83449,0.44300
2342.80469,0.43759
2341.77488,0.43192
2340.74508,0.42587
2339.71528,0.41991
2338.68547,0.41456
2337.65567,0.40944
2336.62586,0.40403
2335.59606,0.39823
2334.56626,0.39242
2333.53645,0.38671
2332.50665,0.38103
2331.47684,0.37569
2330.44704,0.37084
2329.41723,0.36604
2328.38743,0.36094
2327.35763,0.35567
2326.32782,0.35017
2325.29802,0.34444
2324.26821,0.33856
2323.23841,0.33250
2322.20860,0.32645
2321.17880,0.32092
2320.14900,0.31585
2319.11919,0.31090
2318.08939,0.30600
2317.05958,0.30094
2316.02978,0.29580
2314.99997,0.29069
2313.97017,0.28570
2312.94037,0.28107
2311.91056,0.27672
2310.88076,0.27254
2309.85095,0.26816
2308.82115,0.26342
2307.79134,0.25880
2306.76154,0.25428
2305.73174,0.24997
2304.70193,0.24625
2303.67213,0.24264
2302.64232,0.23865
2301.61252,0.23448
2300.58271,0.23039
2299.55291,0.22653
2298.52311,0.22267
2297.49330,0.21886
2296.46350,0.21540
2295.43369,0.21224
2294.40389,0.20926
2293.37408,0.20615
2292.34428,0.20271
2291.31448,0.19921
2290.28467,0.19579
2289.25487,0.19253
2288.22506,0.18940
2287.19526,0.18625
2286.16545,0.18307
2285.13565,0.17979
2284.10585,0.17631
2283.07604,0.17294
2282.04624,0.17012
2281.01643,0.16783
2279.98663,0.16543
2278.95683,0.16268
2277.92702,0.15990
2276.89722,0.15716
2275.86741,0.15460
2274.83761,0.15238
2273.80780,0.15017
2272.77800,0.14774
2271.74820,0.14512
2270.71839,0.14242
2269.68859,0.14002
2268.65878,0.13815
2267.62898,0.13634
2266.59917,0.13415
2265.56937,0.13210
2264.53957,0.13021
2263.50976,0.12782
2262.47996,0.12531
2261.45015,0.12352
2260.42035,0.12211
2259.39054,0.12062
2258.36074,0.11918
2257.33094,0.11745
2256.30113,0.11532
2255.27133,0.11316
2254.24152,0.11133
2253.21172,0.10999
2252.18191,0.10878
2251.15211,0.10738
2250.12231,0.10594
2249.09250,0.10432
2248.06270,0.10219
2247.03289,0.10002
2246.00309,0.09821
2244.97328,0.09659
2243.94348,0.09530
2242.91368,0.09472
2241.88387,0.09372
2240.85407,0.09155
2239.82426,0.08966
2238.79446,0.08901
2237.76465,0.08843
2236.73485,0.08682
2235.70505,0.08476
2234.67524,0.08258
2233.64544,0.08109
2232.61563,0.08084
2231.58583,0.08027
2230.55602,0.07866
2229.52622,0.07718
2228.49642,0.07631
2227.46661,0.07546
2226.43681,0.07469
2225.40700,0.07450
2224.37720,0.07423
2223.34740,0.07331
2222.31759,0.07250
2221.28779,0.07203
2220.25798,0.07145
2219.22818,0.07041
2218.19837,0.06876
2217.16857,0.06658
2216.13877,0.06470
2215.10896,0.06384
2214.07916,0.06321
2213.04935,0.06226
2212.01955,0.06132
2210.98974,0.06035
2209.95994,0.05959
2208.93014,0.05966
2207.90033,0.05960
2206.87053,0.05789
2205.84072,0.05571
2204.81092,0.05450
2203.78111,0.05374
2202.75131,0.05359
2201.72151,0.05404
2200.69170,0.05352
2199.66190,0.05159
2198.63209,0.04980
2197.60229,0.04872
2196.57248,0.04780
2195.54268,0.04772
2194.51288,0.04805
2193.48307,0.04758
2192.45327,0.04686
2191.42346,0.04592
2190.39366,0.04476
2189.36385,0.04471
2188.33405,0.04544
2187.30425,0.04486
2186.27444,0.04328
2185.24464,0.04231
2184.21483,0.04173
2183.18503,0.04096
2182.15522,0.04034
2181.12542,0.04001
2180.09562,0.03944
2179.06581,0.03887
2178.03601,0.03837
2177.00620,0.03762
2175.97640,0.03798
2174.94659,0.03897
2173.91679,0.03876
2172.88699,0.03874
2171.85718,0.03951
2170.82738,0.03920
2169.79757,0.03752
2168.76777,0.03504
2167.73797,0.03255
2166.70816,0.03202
2165.67836,0.03324
2164.64855,0.03339
2163.61875,0.03212
2162.58894,0.03061
2161.55914,0.02935
2160.52934,0.02940
2159.49953,0.02973
2158.46973,0.02844
2157.43992,0.02724
2156.41012,0.02744
2155.38031,0.02819
2154.35051,0.02862
2153.32071,0.02819
2152.29090,0.02771
2151.26110,0.02786
2150.23129,0.02825
2149.20149,0.02878
2148.17168,0.02862
2147.14188,0.02766
2146.11208,0.02703
2145.08227,0.02690
2144.05247,0.02716
2143.02266,0.02699
2141.99286,0.02607
2140.96305,0.02572
2139.93325,0.02642
2138.90345,0.02715
2137.87364,0.02738
2136.84384,0.02726
2135.81403,0.02684
2134.78423,0.02624
2133.75442,0.02558
2132.72462,0.02505
2131.69482,0.02513
2130.66501,0.02562
2129.63521,0.02580
2128.60540,0.02573
2127.57560,0.02547
2126.54579,0.02475
2125.51599,0.02384
2124.48619,0.02349
2123.45638,0.02413
2122.42658,0.02486
2121.39677,0.02495
2120.36697,0.02466
2119.33716,0.02418
2118.30736,0.02371
2117.27756,0.02331
2116.24775,0.02308
2115.21795,0.02305
2114.18814,0.02284
2113.15834,0.02238
2112.12854,0.02207
2111.09873,0.02193
2110.06893,0.02144
2109.03912,0.02070
2108.00932,0.02021
2106.97951,0.02013
2105.94971,0.02049
2104.91991,0.02110
2103.89010,0.02146
2102.86030,0.02124
2101.83049,0.02057
2100.80069,0.02025
2099.77088,0.02045
2098.74108,0.02029
2097.71128,0.01974
2096.68147,0.01918
2095.65167,0.01868
2094.62186,0.01872
2093.59206,0.01882
2092.56225,0.01809
2091.53245,0.01739
2090.50265,0.01757
2089.47284,0.01790
2088.44304,0.01754
2087.41323,0.01702
2086.38343,0.01689
2085.35362,0.01698
2084.32382,0.01739
2083.29402,0.01769
2082.26421,0.01744
2081.23441,0.01712
2080.20460,0.01675
2079.17480,0.01641
2078.14499,0.01641
2077.11519,0.01638
2076.08539,0.01606
2075.05558,0.01562
2074.02578,0.01545
2072.99597,0.01533
2071.96617,0.01481
2070.93636,0.01434
2069.90656,0.01410
2068.87676,0.01394
2067.84695,0.01423
2066.81715,0.01497
2065.78734,0.01533
2064.75754,0.01519
2063.72773,0.01529
2062.69793,0.01530
2061.66813,0.01467
2060.63832,0.01416
2059.60852,0.01405
2058.57871,0.01377
2057.54891,0.01393
2056.51911,0.01450
2055.48930,0.01423
2054.45950,0.01362
2053.42969,0.01360
2052.39989,0.01326
2051.37008,0.01252
2050.34028,0.01221
2049.31048,0.01189
2048.28067,0.01141
2047.25087,0.01134
2046.22106,0.01151
2045.19126,0.01149
2044.16145,0.01115
2043.13165,0.01066
2042.10185,0.01097
2041.07204,0.01151
2040.04224,0.01054
2039.01243,0.00912
2037.98263,0.00901
2036.95282,0.01027
2035.92302,0.01142
2034.89322,0.01161
2033.86341,0.01193
2032.83361,0.01164
2031.80380,0.01016
2030.77400,0.00975
2029.74419,0.01067
2028.71439,0.01137
2027.68459,0.01156
2026.65478,0.01128
2025.62498,0.01046
2024.59517,0.00966
2023.56537,0.00945
2022.53556,0.00959
2021.50576,0.00979
2020.47596,0.01025
2019.44615,0.01041
2018.41635,0.01002
2017.38654,0.01011
2016.35674,0.01086
2015.32693,0.01173
2014.29713,0.01232
2013.26733,0.01209
2012.23752,0.01114
2011.20772,0.01011
2010.17791,0.00937
2009.14811,0.00884
2008.11830,0.00875
2007.08850,0.00895
2006.05870,0.00908
2005.02889,0.00910
2003.99909,0.00897
2002.96928,0.00969
2001.93948,0.01093
2000.90968,0.01091
1999.87987,0.00965
1998.85007,0.00851
1997.82026,0.00851
1996.79046,0.00912
1995.76065,0.00942
1994.73085,0.00959
1993.70105,0.00952
1992.67124,0.00909
1991.64144,0.00921
1990.61163,0.00986
1989.58183,0.01006
1988.55202,0.01039
1987.52222,0.01104
1986.49242,0.01091
1985.46261,0.00991
1984.43281,0.00899
1983.40300,0.00906
1982.37320,0.00956
1981.34339,0.00928
1980.31359,0.00897
1979.28379,0.00956
1978.25398,0.01006
1977.22418,0.00959
1976.19437,0.00898
1975.16457,0.00908
1974.13476,0.00909
1973.10496,0.00904
1972.07516,0.00953
1971.04535,0.00985
1970.01555,0.01022
1968.98574,0.01063
1967.95594,0.00977
1966.92613,0.00823
1965.89633,0.00783
1964.86653,0.00877
1963.83672,0.00979
1962.80692,0.00984
1961.77711,0.00943
1960.74731,0.00923
1959.71750,0.00893
1958.68770,0.00860
1957.65790,0.00906
1956.62809,0.00959
1955.59829,0.00918
1954.56848,0.00903
1953.53868,0.00976
1952.50887,0.01009
1951.47907,0.00974
1950.44927,0.00985
1949.41946,0.01046
1948.38966,0.01071
1947.35985,0.01034
1946.33005,0.01014
1945.30025,0.01062
1944.27044,0.01082
1943.24064,0.01060
1942.21083,0.01069
1941.18103,0.01066
1940.15122,0.01010
1939.12142,0.00955
1938.09162,0.00950
1937.06181,0.00983
1936.03201,0.01017
1935.00220,0.01035
1933.97240,0.01031
1932.94259,0.01036
1931.91279,0.01083
1930.88299,0.01100
1929.85318,0.01064
1928.82338,0.01038
1927.79357,0.01041
1926.76377,0.01073
1925.73396,0.01092
1924.70416,0.01060
1923.67436,0.01011
1922.64455,0.00992
1921.61475,0.01003
1920.58494,0.01036
1919.55514,0.01103
1918.52533,0.01168
1917.49553,0.01166
1916.46573,0.01107
1915.43592,0.01074
1914.40612,0.01080
1913.37631,0.01084
1912.34651,0.01094
1911.31670,0.01109
1910.28690,0.01095
1909.25710,0.01056
1908.22729,0.01044
1907.19749,0.01094
1906.16768,0.01167
1905.13788,0.01194
1904.10807,0.01157
1903.07827,0.01105
1902.04847,0.01101
1901.01866,0.01128
1899.98886,0.01152
1898.95905,0.01155
1897.92925,0.01133
1896.89944,0.01113
1895.86964,0.01121
1894.83984,0.01126
1893.81003,0.01127
1892.78023,0.01159
1891.75042,0.01168
1890.72062,0.01133
1889.69082,0.01129
1888.66101,0.01156
1887.63121,0.01168
1886.60140,0.01172
1885.57160,0.01164
1884.54179,0.01157
1883.51199,0.01160
1882.48219,0.01156
1881.45238,0.01168
1880.42258,0.01206
1879.39277,0.01225
1878.36297,0.01199
1877.33316,0.01160
1876.30336,0.01144
1875.27356,0.01150
1874.24375,0.01169
1873.21395,0.01176
1872.18414,0.01165
1871.15434,0.01159
1870.12453,0.01173
1869.09473,0.01180
1868.06493,0.01174
1867.03512,0.01189
1866.00532,0.01220
1864.97551,0.01252
1863.94571,0.01263
1862.91590,0.01250
1861.88610,0.01232
1860.85630,0.01215
1859.82649,0.01210
1858.79669,0.01221
1857.76688,0.01244
1856.73708,0.01263
1855.70727,0.01240
1854.67747,0.01210
1853.64767,0.01229
1852.61786,0.01258
1851.58806,0.01263
1850.55825,0.01276
1849.52845,0.01278
1848.49864,0.01245
1847.46884,0.01219
1846.43904,0.01235
1845.40923,0.01271
1844.37943,0.01294
1843.34962,0.01316
1842.31982,0.01338
1841.29002,0.01335
1840.26021,0.01301
1839.23041,0.01265
1838.20060,0.01254
1837.17080,0.01254
1836.14099,0.01240
1835.11119,0.01242
1834.08139,0.01278
1833.05158,0.01318
1832.02178,0.01340
1830.99197,0.01344
1829.96217,0.01336
1828.93236,0.01317
1827.90256,0.01325
1826.87276,0.01363
1825.84295,0.01376
1824.81315,0.01350
1823.78334,0.01324
1822.75354,0.01326
1821.72373,0.01343
1820.69393,0.01349
1819.66413,0.01350
1818.63432,0.01363
1817.60452,0.01377
1816.57471,0.01372
1815.54491,0.01358
1814.51510,0.01358
1813.48530,0.01371
1812.45550,0.01394
1811.42569,0.01416
1810.39589,0.01427
1809.36608,0.01425
1808.33628,0.01416
1807.30647,0.01412
1806.27667,0.01406
1805.24687,0.01404
1804.21706,0.01415
1803.18726,0.01430
1802.15745,0.01436
1801.12765,0.01432
1800.09784,0.01437
1799.06804,0.01451
1798.03824,0.01451
1797.00843,0.01432
1795.97863,0.01421
1794.94882,0.01426
1793.91902,0.01426
1792.88921,0.01444
1791.85941,0.01492
1790.82961,0.01500
1789.79980,0.01472
1788.77000,0.01461
1787.74019,0.01466
1786.71039,0.01472
1785.68059,0.01491
1784.65078,0.01508
1783.62098,0.01504
1782.59117,0.01501
1781.56137,0.01502
1780.53156,0.01490
1779.50176,0.01472
1778.47196,0.01464
1777.44215,0.01467
1776.41235,0.01485
1775.38254,0.01512
1774.35274,0.01529
1773.32293,0.01541
1772.29313,0.01538
1771.26333,0.01519
1770.23352,0.01512
1769.20372,0.01512
1768.17391,0.01514
1767.14411,0.01526
1766.11430,0.01545
1765.08450,0.01555
1764.05470,0.01547
1763.02489,0.01541
1761.99509,0.01551
1760.96528,0.01557
1759.93548,0.01551
1758.90567,0.01548
1757.87587,0.01552
1756.84607,0.01556
1755.81626,0.01554
1754.78646,0.01556
1753.75665,0.01565
1752.72685,0.01569
1751.69704,0.01566
1750.66724,0.01571
1749.63744,0.01588
1748.60763,0.01627
1747.57783,0.01661
1746.54802,0.01648
1745.51822,0.01625
1744.48841,0.01627
1743.45861,0.01629
1742.42881,0.01619
1741.39900,0.01622
1740.36920,0.01650
1739.33939,0.01678
1738.30959,0.01675
1737.27978,0.01654
1736.24998,0.01637
1735.22018,0.01650
1734.19037,0.01701
1733.16057,0.01712
1732.13076,0.01687
1731.10096,0.01681
1730.07116,0.01698
1729.04135,0.01715
1728.01155,0.01717
1726.98174,0.01716
1725.95194,0.01727
1724.92213,0.01753
1723.89233,0.01770
1722.86253,0.01768
1721.83272,0.01768
1720.80292,0.01781
1719.77311,0.01790
1718.74331,0.01794
1717.71350,0.01815
1716.68370,0.01839
1715.65390,0.01861
1714.62409,0.01891
1713.59429,0.01895
1712.56448,0.01874
1711.53468,0.01868
1710.50487,0.01896
1709.47507,0.01926
1708.44527,0.01929
1707.41546,0.01932
1706.38566,0.01954
1705.35585,0.01985
1704.32605,0.02013
1703.29624,0.02020
1702.26644,0.02021
1701.23664,0.02051
1700.20683,0.02135
1699.17703,0.02173
1698.14722,0.02168
1697.11742,0.02157
1696.08761,0.02159
1695.05781,0.02222
1694.02801,0.02285
1692.99820,0.02337
1691.96840,0.02400
1690.93859,0.02475
1689.90879,0.02550
1688.87898,0.02608
1687.84918,0.02665
1686.81938,0.02728
1685.78957,0.02802
1684.75977,0.02937
1683.72996,0.03097
1682.70016,0.03154
1681.67035,0.03200
1680.64055,0.03289
1679.61075,0.03408
1678.58094,0.03521
1677.55114,0.03635
1676.52133,0.03760
1675.49153,0.03937
1674.46173,0.04145
1673.43192,0.04281
1672.40212,0.04413
1671.37231,0.04567
1670.34251,0.04694
1669.31270,0.04840
1668.28290,0.05032
1667.25310,0.05193
1666.22329,0.05341
1665.19349,0.05488
1664.16368,0.05632
1663.13388,0.05837
1662.10407,0.06105
1661.07427,0.06305
1660.04447,0.06456
1659.01466,0.06621
1657.98486,0.06794
1656.95505,0.06947
1655.92525,0.07048
1654.89544,0.07108
1653.86564,0.07173
1652.83584,0.07310
1651.80603,0.07362
1650.77623,0.07327
1649.74642,0.07273
1648.71662,0.07212
1647.68681,0.07171
1646.65701,0.07147
1645.62721,0.07079
1644.59740,0.06987
1643.56760,0.06900
1642.53779,0.06800
1641.50799,0.06688
1640.47818,0.06582
1639.44838,0.06484
1638.41858,0.06374
1637.38877,0.06255
1636.35897,0.06135
1635.32916,0.05980
1634.29936,0.05790
1633.26955,0.05625
1632.23975,0.05467
1631.20995,0.05312
1630.18014,0.05168
1629.15034,0.05036
1628.12053,0.04905
1627.09073,0.04773
1626.06092,0.04657
1625.03112,0.04564
1624.00132,0.04495
1622.97151,0.04429
1621.94171,0.04356
1620.91190,0.04285
1619.88210,0.04215
1618.85230,0.04156
1617.82249,0.04109
1616.79269,0.04057
1615.76288,0.04006
1614.73308,0.03968
1613.70327,0.03939
1612.67347,0.03916
1611.64367,0.03891
1610.61386,0.03862
1609.58406,0.03832
1608.55425,0.03805
1607.52445,0.03783
1606.49464,0.03765
1605.46484,0.03749
1604.43504,0.03748
1603.40523,0.03751
1602.37543,0.03745
1601.34562,0.03737
1600.31582,0.03730
1599.28601,0.03716
1598.25621,0.03706
1597.22641,0.03714
1596.19660,0.03729
1595.16680,0.03738
1594.13699,0.03738
1593.10719,0.03747
1592.07738,0.03780
1591.04758,0.03826
1590.01778,0.03864
1588.98797,0.03888
1587.95817,0.03904
1586.92836,0.03925
1585.89856,0.03951
1584.86875,0.03976
1583.83895,0.03995
1582.80915,0.03999
1581.77934,0.03999
1580.74954,0.04005
1579.71973,0.04001
1578.68993,0.03984
1577.66012,0.03971
1576.63032,0.03972
1575.60052,0.03978
1574.57071,0.03961
1573.54091,0.03931
1572.51110,0.03903
1571.48130,0.03877
1570.45149,0.03857
1569.42169,0.03850
1568.39189,0.03848
1567.36208,0.03836
1566.33228,0.03831
1565.30247,0.03849
1564.27267,0.03867
1563.24287,0.03870
1562.21306,0.03874
1561.18326,0.03879
1560.15345,0.03907
1559.12365,0.04006
1558.09384,0.04114
1557.06404,0.04155
1556.03424,0.04164
1555.00443,0.04206
1553.97463,0.04291
1552.94482,0.04349
1551.91502,0.04390
1550.88521,0.04458
1549.85541,0.04549
1548.82561,0.04617
1547.79580,0.04658
1546.76600,0.04694
1545.73619,0.04736
1544.70639,0.04791
1543.67658,0.04825
1542.64678,0.04841
1541.61698,0.04847
1540.58717,0.04834
1539.55737,0.04826
1538.52756,0.04803
1537.49776,0.04748
1536.46795,0.04692
1535.43815,0.04640
1534.40835,0.04584
1533.37854,0.04513
1532.34874,0.04455
1531.31893,0.04419
1530.28913,0.04379
1529.25932,0.04327
1528.22952,0.04294
1527.19972,0.04286
1526.16991,0.04276
1525.14011,0.04265
1524.11030,0.04248
1523.08050,0.04229
1522.05069,0.04233
1521.02089,0.04265
1519.99109,0.04276
1518.96128,0.04258
1517.93148,0.04259
1516.90167,0.04319
1515.87187,0.04377
1514.84206,0.04391
1513.81226,0.04398
1512.78246,0.04409
1511.75265,0.04408
1510.72285,0.04389
1509.69304,0.04380
1508.66324,0.04397
1507.63344,0.04449
1506.60363,0.04523
1505.57383,0.04545
1504.54402,0.04542
1503.51422,0.04550
1502.48441,0.04578
1501.45461,0.04623
1500.42481,0.04666
1499.39500,0.04717
1498.36520,0.04790
1497.33539,0.04854
1496.30559,0.04931
1495.27578,0.05018
1494.24598,0.05076
1493.21618,0.05137
1492.18637,0.05206
1491.15657,0.05279
1490.12676,0.05375
1489.09696,0.05476
1488.06715,0.05561
1487.03735,0.05653
1486.00755,0.05740
1484.97774,0.05823
1483.94794,0.05911
1482.91813,0.06011
1481.88833,0.06118
1480.85852,0.06219
1479.82872,0.06312
1478.79892,0.06409
1477.76911,0.06500
1476.73931,0.06602
1475.70950,0.06729
1474.67970,0.06826
1473.64989,0.06924
1472.62009,0.07076
1471.59029,0.07216
1470.56048,0.07285
1469.53068,0.07328
1468.50087,0.07388
1467.47107,0.07447
1466.44126,0.07487
1465.41146,0.07544
1464.38166,0.07645
1463.35185,0.07715
1462.32205,0.07753
1461.29224,0.07782
1460.26244,0.07797
1459.23263,0.07811
1458.20283,0.07831
1457.17303,0.07872
1456.14322,0.07932
1455.11342,0.07935
1454.08361,0.07899
1453.05381,0.07861
1452.02401,0.07817
1450.99420,0.07773
1449.96440,0.07736
1448.93459,0.07700
1447.90479,0.07663
1446.87498,0.07621
1445.84518,0.07556
1444.81538,0.07483
1443.78557,0.07425
1442.75577,0.07376
1441.72596,0.07312
1440.69616,0.07235
1439.66635,0.07155
1438.63655,0.07070
1437.60675,0.06975
1436.57694,0.06867
1435.54714,0.06767
1434.51733,0.06664
1433.48753,0.06558
1432.45772,0.06465
1431.42792,0.06370
1430.39812,0.06263
1429.36831,0.06159
1428.33851,0.06063
1427.30870,0.05960
1426.27890,0.05856
1425.24909,0.05759
1424.21929,0.05665
1423.18949,0.05561
1422.15968,0.05456
1421.12988,0.05362
1420.10007,0.05271
1419.07027,0.05184
1418.04046,0.05109
1417.01066,0.05030
1415.98086,0.04939
1414.95105,0.04848
1413.92125,0.04758
1412.89144,0.04670
1411.86164,0.04578
1410.83183,0.04486
1409.80203,0.04409
1408.77223,0.04348
1407.74242,0.04283
1406.71262,0.04217
1405.68281,0.04170
1404.65301,0.04120
1403.62320,0.04047
1402.59340,0.03980
1401.56360,0.03931
1400.53379,0.03883
1399.50399,0.03833
1398.47418,0.03784
1397.44438,0.03733
1396.41458,0.03687
1395.38477,0.03646
1394.35497,0.03600
1393.32516,0.03546
1392.29536,0.03490
1391.26555,0.03439
1390.23575,0.03396
1389.20595,0.03359
1388.17614,0.03331
1387.14634,0.03307
1386.11653,0.03264
1385.08673,0.03209
1384.05692,0.03161
1383.02712,0.03121
1381.99732,0.03084
1380.96751,0.03047
1379.93771,0.03010
1378.90790,0.02981
1377.87810,0.02957
1376.84829,0.02929
1375.81849,0.02905
1374.78869,0.02894
1373.75888,0.02878
1372.72908,0.02850
1371.69927,0.02821
1370.66947,0.02808
1369.63966,0.02812
1368.60986,0.02817
1367.58006,0.02807
1366.55025,0.02781
1365.52045,0.02758
1364.49064,0.02747
1363.46084,0.02743
1362.43103,0.02730
1361.40123,0.02710
1360.37143,0.02697
1359.34162,0.02691
1358.31182,0.02688
1357.28201,0.02680
1356.25221,0.02669
1355.22240,0.02660
1354.19260,0.02661
1353.16280,0.02667
1352.13299,0.02664
1351.10319,0.02655
1350.07338,0.02657
1349.04358,0.02668
1348.01377,0.02679
1346.98397,0.02687
1345.95417,0.02695
1344.92436,0.02700
1343.89456,0.02706
1342.86475,0.02715
1341.83495,0.02721
1340.80515,0.02724
1339.77534,0.02725
1338.74554,0.02720
1337.71573,0.02718
1336.68593,0.02726
1335.65612,0.02731
1334.62632,0.02723
1333.59652,0.02705
1332.56671,0.02696
1331.53691,0.02705
1330.50710,0.02707
1329.47730,0.02696
1328.44749,0.02685
1327.41769,0.02672
1326.38789,0.02655
1325.35808,0.02643
1324.32828,0.02635
1323.29847,0.02630
1322.26867,0.02633
1321.23886,0.02650
1320.20906,0.02668
1319.17926,0.02671
1318.14945,0.02664
1317.11965,0.02667
1316.08984,0.02682
1315.06004,0.02702
1314.03023,0.02715
1313.00043,0.02717
1311.97063,0.02723
1310.94082,0.02738
1309.91102,0.02753
1308.88121,0.02766
1307.85141,0.02781
1306.82160,0.02799
1305.79180,0.02809
1304.76200,0.02812
1303.73219,0.02816
1302.70239,0.02820
1301.67258,0.02826
1300.64278,0.02838
1299.61297,0.02860
1298.58317,0.02892
1297.55337,0.02923
1296.52356,0.02943
1295.49376,0.02952
1294.46395,0.02957
1293.43415,0.02972
1292.40434,0.02997
1291.37454,0.03010
1290.34474,0.03016
1289.31493,0.03039
1288.28513,0.03078
1287.25532,0.03115
1286.22552,0.03142
1285.19572,0.03166
1284.16591,0.03199
1283.13611,0.03236
1282.10630,0.03273
1281.07650,0.03310
1280.04669,0.03348
1279.01689,0.03396
1277.98709,0.03456
1276.95728,0.03511
1275.92748,0.03551
1274.89767,0.03586
1273.86787,0.03629
1272.83806,0.03686
1271.80826,0.03757
1270.77846,0.03837
1269.74865,0.03916
1268.71885,0.03987
1267.68904,0.04059
1266.65924,0.04134
1265.62943,0.04216
1264.59963,0.04311
1263.56983,0.04410
1262.54002,0.04509
1261.51022,0.04613
1260.48041,0.04721
1259.45061,0.04836
1258.42080,0.04958
1257.39100,0.05089
1256.36120,0.05227
1255.33139,0.05366
1254.30159,0.05513
1253.27178,0.05676
1252.24198,0.05839
1251.21217,0.06004
1250.18237,0.06192
1249.15257,0.06392
1248.12276,0.06593
1247.09296,0.06802
1246.06315,0.07022
1245.03335,0.07257
1244.00354,0.07513
1242.97374,0.07785
1241.94394,0.08063
1240.91413,0.08341
1239.88433,0.08623
1238.85452,0.08919
1237.82472,0.09231
1236.79492,0.09543
1235.76511,0.09856
1234.73531,0.10177
1233.70550,0.10502
1232.67570,0.10835
1231.64589,0.11188
1230.61609,0.11551
1229.58629,0.11902
1228.55648,0.12246
1227.52668,0.12597
1226.49687,0.12950
1225.46707,0.13301
1224.43726,0.13655
1223.40746,0.14017
1222.37766,0.14383
1221.34785,0.14733
1220.31805,0.15064
1219.28824,0.15392
1218.25844,0.15726
1217.22863,0.16048
1216.19883,0.16345
1215.16903,0.16628
1214.13922,0.16900
1213.10942,0.17150
1212.07961,0.17368
1211.04981,0.17555
1210.02000,0.17723
1208.99020,0.17872
1207.96040,0.17975
1206.93059,0.18028
1205.90079,0.18054
1204.87098,0.18043
1203.84118,0.17985
1202.81137,0.17889
1201.78157,0.17758
1200.75177,0.17572
1199.72196,0.17328
1198.69216,0.17056
1197.66235,0.16775
1196.63255,0.16468
1195.60274,0.16129
1194.57294,0.15768
1193.54314,0.15394
1192.51333,0.15007
1191.48353,0.14601
1190.45372,0.14190
1189.42392,0.13793
1188.39411,0.13399
1187.36431,0.13007
1186.33451,0.12632
1185.30470,0.12271
1184.27490,0.11902
1183.24509,0.11536
1182.21529,0.11199
1181.18549,0.10888
1180.15568,0.10589
1179.12588,0.10304
1178.09607,0.10035
1177.06627,0.09779
1176.03646,0.09532
1175.00666,0.09289
1173.97686,0.09052
1172.94705,0.08834
1171.91725,0.08635
1170.88744,0.08443
1169.85764,0.08257
1168.82783,0.08081
1167.79803,0.07914
1166.76823,0.07752
1165.73842,0.07595
1164.70862,0.07451
1163.67881,0.07315
1162.64901,0.07186
1161.61920,0.07063
1160.58940,0.06942
1159.55960,0.06825
1158.52979,0.06707
1157.49999,0.06589
1156.47018,0.06480
1155.44038,0.06382
1154.41057,0.06296
1153.38077,0.06218
1152.35097,0.06139
1151.32116,0.06055
1150.29136,0.05975
1149.26155,0.05897
1148.23175,0.05818
1147.20194,0.05742
1146.17214,0.05666
1145.14234,0.05594
1144.11253,0.05533
1143.08273,0.05478
1142.05292,0.05418
1141.02312,0.05359
1139.99331,0.05312
1138.96351,0.05266
1137.93371,0.05220
1136.90390,0.05179
1135.87410,0.05144
1134.84429,0.05111
1133.81449,0.05075
1132.78468,0.05029
1131.75488,0.04977
1130.72508,0.04935
1129.69527,0.04906
1128.66547,0.04881
1127.63566,0.04854
1126.60586,0.04821
1125.57606,0.04779
1124.54625,0.04735
1123.51645,0.04703
1122.48664,0.04676
1121.45684,0.04645
1120.42703,0.04623
1119.39723,0.04612
1118.36743,0.04590
1117.33762,0.04558
1116.30782,0.04530
1115.27801,0.04507
1114.24821,0.04495
1113.21840,0.04492
1112.18860,0.04472
1111.15880,0.04442
1110.12899,0.04419
1109.09919,0.04409
1108.06938,0.04404
1107.03958,0.04400
1106.00977,0.04388
1104.97997,0.04366
1103.95017,0.04340
1102.92036,0.04311
1101.89056,0.04279
1100.86075,0.04260
1099.83095,0.04256
1098.80114,0.04253
1097.77134,0.04244
1096.74154,0.04230
1095.71173,0.04221
1094.68193,0.04212
1093.65212,0.04196
1092.62232,0.04180
1091.59251,0.04164
1090.56271,0.04148
1089.53291,0.04138
1088.50310,0.04123
1087.47330,0.04103
1086.44349,0.04094
1085.41369,0.04094
1084.38388,0.04092
1083.35408,0.04088
1082.32428,0.04075
1081.29447,0.04053
1080.26467,0.04034
1079.23486,0.04020
1078.20506,0.04005
1077.17525,0.03985
1076.14545,0.03966
1075.11565,0.03950
1074.08584,0.03944
1073.05604,0.03942
1072.02623,0.03935
1070.99643,0.03929
1069.96663,0.03917
1068.93682,0.03900
1067.90702,0.03897
1066.87721,0.03899
1065.84741,0.03889
1064.81760,0.03867
1063.78780,0.03848
1062.75800,0.03841
1061.72819,0.03845
1060.69839,0.03853
1059.66858,0.03860
1058.63878,0.03866
1057.60897,0.03865
1056.57917,0.03857
1055.54937,0.03850
1054.51956,0.03848
1053.48976,0.03851
1052.45995,0.03848
1051.43015,0.03834
1050.40034,0.03815
1049.37054,0.03803
1048.34074,0.03795
1047.31093,0.03796
1046.28113,0.03806
1045.25132,0.03813
1044.22152,0.03799
1043.19171,0.03768
1042.16191,0.03749
1041.13211,0.03744
1040.10230,0.03736
1039.07250,0.03720
1038.04269,0.03703
1037.01289,0.03697
1035.98308,0.03698
1034.95328,0.03695
1033.92348,0.03695
1032.89367,0.03695
1031.86387,0.03681
1030.83406,0.03665
1029.80426,0.03662
1028.77445,0.03661
1027.74465,0.03657
1026.71485,0.03653
1025.68504,0.03650
1024.65524,0.03650
1023.62543,0.03652
1022.59563,0.03647
1021.56582,0.03633
1020.53602,0.03624
1019.50622,0.03622
1018.47641,0.03617
1017.44661,0.03613
1016.41680,0.03619
1015.38700,0.03627
1014.35720,0.03628
1013.32739,0.03623
1012.29759,0.03615
1011.26778,0.03606
1010.23798,0.03598
1009.20817,0.03595
1008.17837,0.03595
1007.14857,0.03587
1006.11876,0.03577
1005.08896,0.03578
1004.05915,0.03586
1003.02935,0.03587
1001.99954,0.03575
1000.96974,0.03559
999.93994,0.03549
998.91013,0.03553
997.88033,0.03562
996.85052,0.03564
995.82072,0.03560
994.79091,0.03553
993.76111,0.03547
992.73131,0.03548
991.70150,0.03550
990.67170,0.03550
989.64189,0.03552
988.61209,0.03555
987.58228,0.03549
986.55248,0.03538
985.52268,0.03534
984.49287,0.03532
983.46307,0.03531
982.43326,0.03535
981.40346,0.03533
980.37365,0.03527
979.34385,0.03525
978.31405,0.03531
977.28424,0.03537
976.25444,0.03532
975.22463,0.03528
974.19483,0.03534
973.16502,0.03534
972.13522,0.03524
971.10542,0.03516
970.07561,0.03516
969.04581,0.03523
968.01600,0.03526
966.98620,0.03519
965.95639,0.03514
964.92659,0.03518
963.89679,0.03521
962.86698,0.03516
961.83718,0.03507
960.80737,0.03497
959.77757,0.03491
958.74777,0.03498
957.71796,0.03508
956.68816,0.03510
955.65835,0.03508
954.62855,0.03503
953.59874,0.03493
952.56894,0.03482
951.53914,0.03481
950.50933,0.03491
949.47953,0.03501
948.44972,0.03502
947.41992,0.03495
946.39011,0.03491
945.36031,0.03498
944.33051,0.03504
943.30070,0.03491
942.27090,0.03473
941.24109,0.03473
940.21129,0.03489
939.18148,0.03499
938.15168,0.03495
937.12188,0.03491
936.09207,0.03495
935.06227,0.03506
934.03246,0.03515
933.00266,0.03513
931.97285,0.03514
930.94305,0.03521
929.91325,0.03522
928.88344,0.03513
927.85364,0.03504
926.82383,0.03498
925.79403,0.03487
924.76422,0.03481
923.73442,0.03493
922.70462,0.03507
921.67481,0.03510
920.64501,0.03506
919.61520,0.03501
918.58540,0.03504
917.55559,0.03518
916.52579,0.03532
915.49599,0.03538
914.46618,0.03532
913.43638,0.03522
912.40657,0.03511
911.37677,0.03506
910.34696,0.03507
909.31716,0.03511
908.28736,0.03515
907.25755,0.03522
906.22775,0.03534
905.19794,0.03537
904.16814,0.03538
903.13834,0.03546
902.10853,0.03551
901.07873,0.03548
900.04892,0.03547
899.01912,0.03552
897.98931,0.03556
896.95951,0.03558
895.92971,0.03561
894.89990,0.03564
893.87010,0.03569
892.84029,0.03569
891.81049,0.03567
890.78068,0.03571
889.75088,0.03583
888.72108,0.03593
887.69127,0.03594
886.66147,0.03595
885.63166,0.03600
884.60186,0.03602
883.57205,0.03597
882.54225,0.03594
881.51245,0.03599
880.48264,0.03610
879.45284,0.03634
878.42303,0.03656
877.39323,0.03658
876.36342,0.03639
875.33362,0.03630
874.30382,0.03652
873.27401,0.03678
872.24421,0.03686
871.21440,0.03680
870.18460,0.03672
869.15479,0.03674
868.12499,0.03680
867.09519,0.03679
866.06538,0.03680
865.03558,0.03689
864.00577,0.03698
862.97597,0.03713
861.94616,0.03732
860.91636,0.03744
859.88656,0.03762
858.85675,0.03791
857.82695,0.03799
856.79714,0.03786
855.76734,0.03780
854.73753,0.03789
853.70773,0.03799
852.67793,0.03809
851.64812,0.03820
850.61832,0.03829
849.58851,0.03841
848.55871,0.03858
847.52891,0.03873
846.49910,0.03882
845.46930,0.03893
844.43949,0.03901
843.40969,0.03909
842.37988,0.03931
841.35008,0.03953
840.32028,0.03968
839.29047,0.03983
838.26067,0.03993
837.23086,0.04006
836.20106,0.04024
835.17125,0.04040
834.14145,0.04048
833.11165,0.04049
832.08184,0.04057
831.05204,0.04082
830.02223,0.04114
828.99243,0.04133
827.96262,0.04142
826.93282,0.04150
825.90302,0.04143
824.87321,0.04126
823.84341,0.04130
822.81360,0.04160
821.78380,0.04191
820.75399,0.04204
819.72419,0.04206
818.69439,0.04219
817.66458,0.04242
816.63478,0.04273
815.60497,0.04298
814.57517,0.04308
813.54536,0.04322
812.51556,0.04347
811.48576,0.04365
810.45595,0.04374
809.42615,0.04382
808.39634,0.04393
807.36654,0.04406
806.33673,0.04424
805.30693,0.04440
804.27713,0.04449
803.24732,0.04460
802.21752,0.04483
801.18771,0.04515
800.15791,0.04539
799.12810,0.04563
