3997.70013,0.00100
3995.64052,0.00135
3993.58092,0.00188
3991.52131,0.00211
3989.46170,0.00198
3987.40209,0.00164
3985.34248,0.00114
3983.28287,0.00080
3981.22327,0.00097
3979.16366,0.00129
3977.10405,0.00153
3975.04444,0.00184
3972.98483,0.00197
3970.92522,0.00215
3968.86561,0.00253
3966.80601,0.00248
3964.74640,0.00226
3962.68679,0.00207
3960.62718,0.00195
3958.56757,0.00236
3956.50796,0.00240
3954.44835,0.00172
3952.38875,0.00138
3950.32914,0.00178
3948.26953,0.00248
3946.20992,0.00306
3944.15031,0.00299
3942.09070,0.00260
3940.03109,0.00264
3937.97149,0.00266
3935.91188,0.00251
3933.85227,0.00253
3931.79266,0.00271
3929.73305,0.00314
3927.67344,0.00357
3925.61384,0.00388
3923.55423,0.00437
3921.49462,0.00475
3919.43501,0.00459
3917.37540,0.00449
3915.31579,0.00491
3913.25618,0.00524
3911.19658,0.00527
3909.13697,0.00541
3907.07736,0.00598
3905.01775,0.00729
3902.95814,0.00885
3900.89853,0.00911
3898.83892,0.00836
3896.77932,0.00796
3894.71971,0.00800
3892.66010,0.00807
3890.60049,0.00804
3888.54088,0.00828
3886.48127,0.00881
3884.42166,0.00885
3882.36206,0.00845
3880.30245,0.00857
3878.24284,0.00916
3876.18323,0.00964
3874.12362,0.00983
3872.06401,0.00957
3870.00441,0.00937
3867.94480,0.00942
3865.88519,0.00924
3863.82558,0.00909
3861.76597,0.00893
3859.70636,0.00840
3857.64675,0.00834
3855.58715,0.00940
3853.52754,0.01068
3851.46793,0.01086
3849.40832,0.01068
3847.34871,0.01060
3845.28910,0.01049
3843.22949,0.01034
3841.16989,0.01025
3839.11028,0.01005
3837.05067,0.00979
3834.99106,0.00992
3832.93145,0.01029
3830.87184,0.01015
3828.81223,0.00952
3826.75263,0.00944
3824.69302,0.01028
3822.63341,0.01121
3820.57380,0.01145
3818.51419,0.01063
3816.45458,0.00951
3814.39498,0.00936
3812.33537,0.00951
3810.27576,0.00933
3808.21615,0.00944
3806.15654,0.00953
3804.09693,0.00920
3802.03732,0.00861
3799.97772,0.00790
3797.91811,0.00761
3795.85850,0.00754
3793.79889,0.00760
3791.73928,0.00802
3789.67967,0.00849
3787.62006,0.00839
3785.56046,0.00767
3783.50085,0.00689
3781.44124,0.00648
3779.38163,0.00661
3777.32202,0.00721
3775.26241,0.00778
3773.20280,0.00763
3771.14320,0.00674
3769.08359,0.00653
3767.02398,0.00723
3764.96437,0.00712
3762.90476,0.00629
3760.84515,0.00598
3758.78555,0.00676
3756.72594,0.00801
3754.66633,0.00862
3752.60672,0.00907
3750.54711,0.00950
3748.48750,0.00856
3746.42789,0.00747
3744.36829,0.00727
3742.30868,0.00658
3740.24907,0.00577
3738.18946,0.00588
3736.12985,0.00629
3734.07024,0.00633
3732.01063,0.00628
3729.95103,0.00605
3727.89142,0.00547
3725.83181,0.00489
3723.77220,0.00506
3721.71259,0.00592
3719.65298,0.00647
3717.59337,0.00624
3715.53377,0.00573
3713.47416,0.00560
3711.41455,0.00607
3709.35494,0.00613
3707.29533,0.00555
3705.23572,0.00526
3703.17612,0.00536
3701.11651,0.00560
3699.05690,0.00561
3696.99729,0.00533
3694.93768,0.00508
3692.87807,0.00497
3690.81846,0.00514
3688.75886,0.00565
3686.69925,0.00591
3684.63964,0.00568
3682.58003,0.00534
3680.52042,0.00518
3678.46081,0.00506
3676.40120,0.00480
3674.34160,0.00426
3672.28199,0.00327
3670.22238,0.00262
3668.16277,0.00323
3666.10316,0.00443
3664.04355,0.00507
3661.98394,0.00483
3659.92434,0.00421
3657.86473,0.00360
3655.80512,0.00353
3653.74551,0.00411
3651.68590,0.00445
3649.62629,0.00453
3647.56669,0.00509
3645.50708,0.00579
3643.44747,0.00599
3641.38786,0.00565
3639.32825,0.00522
3637.26864,0.00526
3635.20903,0.00569
3633.14943,0.00586
3631.08982,0.00579
3629.03021,0.00578
3626.97060,0.00584
3624.91099,0.00600
3622.85138,0.00615
3620.79177,0.00614
3618.73217,0.00593
3616.67256,0.00588
3614.61295,0.00635
3612.55334,0.00702
3610.49373,0.00745
3608.43412,0.00763
3606.37451,0.00728
3604.31491,0.00630
3602.25530,0.00555
3600.19569,0.00571
3598.13608,0.00636
3596.07647,0.00686
3594.01686,0.00713
3591.95726,0.00706
3589.89765,0.00689
3587.83804,0.00695
3585.77843,0.00676
3583.71882,0.00647
3581.65921,0.00695
3579.59960,0.00776
3577.54000,0.00800
3575.48039,0.00770
3573.42078,0.00707
3571.36117,0.00668
3569.30156,0.00686
3567.24195,0.00707
3565.18234,0.00704
3563.12274,0.00720
3561.06313,0.00776
3559.00352,0.00831
3556.94391,0.00862
3554.88430,0.00863
3552.82469,0.00840
3550.76508,0.00832
3548.70548,0.00883
3546.64587,0.00944
3544.58626,0.00943
3542.52665,0.00955
3540.46704,0.01009
3538.40743,0.01031
3536.34783,0.01029
3534.28822,0.01070
3532.22861,0.01136
3530.16900,0.01173
3528.10939,0.01206
3526.04978,0.01219
3523.99017,0.01162
3521.93057,0.01109
3519.87096,0.01133
3517.81135,0.01186
3515.75174,0.01224
3513.69213,0.01253
3511.63252,0.01289
3509.57291,0.01314
3507.51331,0.01322
3505.45370,0.01330
3503.39409,0.01325
3501.33448,0.01296
3499.27487,0.01266
3497.21526,0.01274
3495.15565,0.01312
3493.09605,0.01377
3491.03644,0.01474
3488.97683,0.01537
3486.91722,0.01550
3484.85761,0.01536
3482.79800,0.01495
3480.73840,0.01506
3478.67879,0.01572
3476.61918,0.01577
3474.55957,0.01529
3472.49996,0.01539
3470.44035,0.01616
3468.38074,0.01661
3466.32114,0.01656
3464.26153,0.01619
3462.20192,0.01574
3460.14231,0.01593
3458.08270,0.01658
3456.02309,0.01721
3453.96348,0.01779
3451.90388,0.01806
3449.84427,0.01794
3447.78466,0.01788
3445.72505,0.01816
3443.66544,0.01838
3441.60583,0.01806
3439.54622,0.01780
3437.48662,0.01824
3435.42701,0.01867
3433.36740,0.01845
3431.30779,0.01802
3429.24818,0.01789
3427.18857,0.01796
3425.12897,0.01797
3423.06936,0.01806
3421.00975,0.01828
3418.95014,0.01841
3416.89053,0.01840
3414.83092,0.01865
3412.77131,0.01929
3410.71171,0.01947
3408.65210,0.01878
3406.59249,0.01814
3404.53288,0.01813
3402.47327,0.01857
3400.41366,0.01900
3398.35405,0.01894
3396.29445,0.01841
3394.23484,0.01793
3392.17523,0.01815
3390.11562,0.01877
3388.05601,0.01898
3385.99640,0.01894
3383.93679,0.01911
3381.87719,0.01922
3379.81758,0.01867
3377.75797,0.01789
3375.69836,0.01771
3373.63875,0.01782
3371.57914,0.01764
3369.51954,0.01714
3367.45993,0.01653
3365.40032,0.01662
3363.34071,0.01734
3361.28110,0.01764
3359.22149,0.01750
3357.16188,0.01732
3355.10228,0.01678
3353.04267,0.01584
3350.98306,0.01511
3348.92345,0.01506
3346.86384,0.01537
3344.80423,0.01542
3342.74462,0.01537
3340.68502,0.01542
3338.62541,0.01541
3336.56580,0.01532
3334.50619,0.01493
3332.44658,0.01435
3330.38697,0.01429
3328.32736,0.01464
3326.26776,0.01476
3324.20815,0.01456
3322.14854,0.01411
3320.08893,0.01360
3318.02932,0.01332
3315.96971,0.01330
3313.91011,0.01284
3311.85050,0.01216
3309.79089,0.01220
3307.73128,0.01231
3305.67167,0.01162
3303.61206,0.01107
3301.55245,0.01134
3299.49285,0.01149
3297.43324,0.01141
3295.37363,0.01156
3293.31402,0.01151
3291.25441,0.01133
3289.19480,0.01133
3287.13519,0.01111
3285.07559,0.01073
3283.01598,0.01068
3280.95637,0.01075
3278.89676,0.01046
3276.83715,0.00990
3274.77754,0.00950
3272.71793,0.00938
3270.65833,0.00902
3268.59872,0.00840
3266.53911,0.00792
3264.47950,0.00790
3262.41989,0.00837
3260.36028,0.00853
3258.30068,0.00802
3256.24107,0.00776
3254.18146,0.00822
3252.12185,0.00867
3250.06224,0.00844
3248.00263,0.00774
3245.94302,0.00711
3243.88342,0.00689
3241.82381,0.00708
3239.76420,0.00721
3237.70459,0.00711
3235.64498,0.00712
3233.58537,0.00703
3231.52576,0.00664
3229.46616,0.00633
3227.40655,0.00641
3225.34694,0.00665
3223.28733,0.00670
3221.22772,0.00655
3219.16811,0.00634
3217.10850,0.00612
3215.04890,0.00595
3212.98929,0.00580
3210.92968,0.00555
3208.87007,0.00533
3206.81046,0.00524
3204.75085,0.00538
3202.69125,0.00563
3200.63164,0.00557
3198.57203,0.00534
3196.51242,0.00537
3194.45281,0.00544
3192.39320,0.00522
3190.33359,0.00503
3188.27399,0.00512
3186.21438,0.00521
3184.15477,0.00503
3182.09516,0.00489
3180.03555,0.00503
3177.97594,0.00495
3175.91633,0.00474
3173.85673,0.00484
3171.79712,0.00491
3169.73751,0.00477
3167.67790,0.00472
3165.61829,0.00481
3163.55868,0.00489
3161.49907,0.00483
3159.43947,0.00488
3157.37986,0.00522
3155.32025,0.00523
3153.26064,0.00490
3151.20103,0.00493
3149.14142,0.00507
3147.08182,0.00497
3145.02221,0.00490
3142.96260,0.00482
3140.90299,0.00479
3138.84338,0.00495
3136.78377,0.00482
3134.72416,0.00450
3132.66456,0.00458
3130.60495,0.00480
3128.54534,0.00482
3126.48573,0.00474
3124.42612,0.00452
3122.36651,0.00430
3120.30690,0.00463
3118.24730,0.00548
3116.18769,0.00616
3114.12808,0.00614
3112.06847,0.00549
3110.00886,0.00491
3107.94925,0.00482
3105.88965,0.00475
3103.83004,0.00439
3101.77043,0.00415
3099.71082,0.00429
3097.65121,0.00452
3095.59160,0.00442
3093.53199,0.00417
3091.47239,0.00433
3089.41278,0.00477
3087.35317,0.00500
3085.29356,0.00504
3083.23395,0.00509
3081.17434,0.00521
3079.11473,0.00535
3077.05513,0.00518
3074.99552,0.00473
3072.93591,0.00449
3070.87630,0.00464
3068.81669,0.00482
3066.75708,0.00476
3064.69747,0.00470
3062.63787,0.00470
3060.57826,0.00463
3058.51865,0.00450
3056.45904,0.00441
3054.39943,0.00448
3052.33982,0.00476
3050.28022,0.00515
3048.22061,0.00547
3046.16100,0.00555
3044.10139,0.00536
3042.04178,0.00521
3039.98217,0.00534
3037.92256,0.00544
3035.86296,0.00530
3033.80335,0.00510
3031.74374,0.00504
3029.68413,0.00504
3027.62452,0.00501
3025.56491,0.00508
3023.50530,0.00537
3021.44570,0.00565
3019.38609,0.00585
3017.32648,0.00592
3015.26687,0.00577
3013.20726,0.00553
3011.14765,0.00554
3009.08804,0.00597
3007.02844,0.00641
3004.96883,0.00654
3002.90922,0.00659
3000.84961,0.00672
2998.79000,0.00677
2996.73039,0.00685
2994.67079,0.00709
2992.61118,0.00737
2990.55157,0.00735
2988.49196,0.00691
2986.43235,0.00666
2984.37274,0.00677
2982.31313,0.00682
2980.25353,0.00680
2978.19392,0.00692
2976.13431,0.00702
2974.07470,0.00693
2972.01509,0.00691
2969.95548,0.00711
2967.89587,0.00729
2965.83627,0.00717
2963.77666,0.00684
2961.71705,0.00695
2959.65744,0.00743
2957.59783,0.00758
2955.53822,0.00736
2953.47861,0.00715
2951.41901,0.00714
2949.35940,0.00728
2947.29979,0.00735
2945.24018,0.00734
2943.18057,0.00757
2941.12096,0.00783
2939.06136,0.00774
2937.00175,0.00745
2934.94214,0.00732
2932.88253,0.00755
2930.82292,0.00795
2928.76331,0.00808
2926.70370,0.00786
2924.64410,0.00754
2922.58449,0.00752
2920.52488,0.00778
2918.46527,0.00805
2916.40566,0.00833
2914.34605,0.00864
2912.28644,0.00866
2910.22684,0.00834
2908.16723,0.00803
2906.10762,0.00787
2904.04801,0.00769
2901.98840,0.00749
2899.92879,0.00752
2897.86918,0.00784
2895.80958,0.00818
2893.74997,0.00826
2891.69036,0.00815
2889.63075,0.00804
2887.57114,0.00793
2885.51153,0.00792
2883.45193,0.00799
2881.39232,0.00804
2879.33271,0.00801
2877.27310,0.00792
2875.21349,0.00809
2873.15388,0.00851
2871.09427,0.00868
2869.03467,0.00857
2866.97506,0.00850
2864.91545,0.00857
2862.85584,0.00870
2860.79623,0.00889
2858.73662,0.00899
2856.67701,0.00886
2854.61741,0.00859
2852.55780,0.00840
2850.49819,0.00849
2848.43858,0.00886
2846.37897,0.00914
2844.31936,0.00894
2842.25975,0.00875
2840.20015,0.00902
2838.14054,0.00924
2836.08093,0.00918
2834.02132,0.00912
2831.96171,0.00916
2829.90210,0.00926
2827.84250,0.00937
2825.78289,0.00944
2823.72328,0.00950
2821.66367,0.00967
2819.60406,0.00984
2817.54445,0.01000
2815.48484,0.01020
2813.42524,0.01021
2811.36563,0.01015
2809.30602,0.01032
2807.24641,0.01057
2805.18680,0.01063
2803.12719,0.01067
2801.06758,0.01108
2799.00798,0.01177
2796.94837,0.01210
2794.88876,0.01197
2792.82915,0.01192
2790.76954,0.01212
2788.70993,0.01255
2786.65032,0.01293
2784.59072,0.01317
2782.53111,0.01346
2780.47150,0.01391
2778.41189,0.01451
2776.35228,0.01515
2774.29267,0.01580
2772.23307,0.01633
2770.17346,0.01669
2768.11385,0.01722
2766.05424,0.01821
2763.99463,0.01937
2761.93502,0.02024
2759.87541,0.02106
2757.81581,0.02226
2755.75620,0.02373
2753.69659,0.02533
2751.63698,0.02696
2749.57737,0.02880
2747.51776,0.03106
2745.45815,0.03345
2743.39855,0.03578
2741.33894,0.03832
2739.27933,0.04129
2737.21972,0.04467
2735.16011,0.04851
2733.10050,0.05278
2731.04089,0.05728
2728.98129,0.06197
2726.92168,0.06700
2724.86207,0.07249
2722.80246,0.07855
2720.74285,0.08523
2718.68324,0.09219
2716.62364,0.09909
2714.56403,0.10609
2712.50442,0.11363
2710.44481,0.12176
2708.38520,0.13000
2706.32559,0.13805
2704.26598,0.14611
2702.20638,0.15424
2700.14677,0.16243
2698.08716,0.17075
2696.02755,0.17912
2693.96794,0.18732
2691.90833,0.19519
2689.84872,0.20286
2687.78912,0.21062
2685.72951,0.21838
2683.66990,0.22595
2681.61029,0.23342
2679.55068,0.24081
2677.49107,0.24810
2675.43146,0.25533
2673.37186,0.26253
2671.31225,0.26962
2669.25264,0.27650
2667.19303,0.28327
2665.13342,0.29018
2663.07381,0.29707
2661.01421,0.30368
2658.95460,0.31025
2656.89499,0.31698
2654.83538,0.32383
2652.77577,0.33081
2650.71616,0.33755
2648.65655,0.34390
2646.59695,0.35036
2644.53734,0.35706
2642.47773,0.36383
2640.41812,0.37057
2638.35851,0.37717
2636.29890,0.38381
2634.23929,0.39070
2632.17969,0.39746
2630.12008,0.40376
2628.06047,0.40993
2626.00086,0.41630
2623.94125,0.42284
2621.88164,0.42936
2619.82203,0.43552
2617.76243,0.44133
2615.70282,0.44735
2613.64321,0.45371
2611.58360,0.45990
2609.52399,0.46578
2607.46438,0.47152
2605.40478,0.47712
2603.34517,0.48258
2601.28556,0.48804
2599.22595,0.49370
2597.16634,0.49955
2595.10673,0.50512
2593.04712,0.50995
2590.98752,0.51457
2588.92791,0.51951
2586.86830,0.52433
2584.80869,0.52864
2582.74908,0.53304
2580.68947,0.53759
2578.62986,0.54124
2576.57026,0.54429
2574.51065,0.54790
2572.45104,0.55184
2570.39143,0.55558
2568.33182,0.55950
2566.27221,0.56365
2564.21260,0.56742
2562.15300,0.57098
2560.09339,0.57487
2558.03378,0.57896
2555.97417,0.58300
2553.91456,0.58679
2551.85495,0.59036
2549.79535,0.59427
2547.73574,0.59853
2545.67613,0.60235
2543.61652,0.60618
2541.55691,0.61111
2539.49730,0.61644
2537.43769,0.62079
2535.37809,0.62438
2533.31848,0.62837
2531.25887,0.63331
2529.19926,0.63894
2527.13965,0.64510
2525.08004,0.65158
2523.02043,0.65791
2520.96083,0.66375
2518.90122,0.66945
2516.84161,0.67522
2514.78200,0.68084
2512.72239,0.68688
2510.66278,0.69323
2508.60317,0.69943
2506.54357,0.70618
2504.48396,0.71324
2502.42435,0.71979
2500.36474,0.72570
2498.30513,0.73085
2496.24552,0.73568
2494.18592,0.74067
2492.12631,0.74529
2490.06670,0.74947
2488.00709,0.75359
2485.94748,0.75719
2483.88787,0.75992
2481.82826,0.76204
2479.76866,0.76358
2477.70905,0.76495
2475.64944,0.76629
2473.58983,0.76696
2471.53022,0.76690
2469.47061,0.76626
2467.41100,0.76523
2465.35140,0.76404
2463.29179,0.76279
2461.23218,0.76164
2459.17257,0.76040
2457.11296,0.75862
2455.05335,0.75626
2452.99374,0.75396
2450.93414,0.75181
2448.87453,0.74904
2446.81492,0.74586
2444.75531,0.74312
2442.69570,0.74116
2440.63609,0.73964
2438.57649,0.73789
2436.51688,0.73615
2434.45727,0.73451
2432.39766,0.73249
2430.33805,0.73061
2428.27844,0.72934
2426.21883,0.72825
2424.15923,0.72725
2422.09962,0.72659
2420.04001,0.72610
2417.98040,0.72563
2415.92079,0.72561
2413.86118,0.72590
2411.80157,0.72547
2409.74197,0.72450
2407.68236,0.72373
2405.62275,0.72300
2403.56314,0.72237
2401.50353,0.72180
2399.44392,0.72085
2397.38431,0.71965
2395.32471,0.71828
2393.26510,0.71641
2391.20549,0.71416
2389.14588,0.71123
2387.08627,0.70743
2385.02666,0.70341
2382.96706,0.69925
2380.90745,0.69463
2378.84784,0.68938
2376.78823,0.68330
2374.72862,0.67627
2372.66901,0.66880
2370.60940,0.66124
2368.54980,0.65304
2366.49019,0.64445
2364.43058,0.63570
2362.37097,0.62674
2360.31136,0.61694
2358.25175,0.60561
2356.19214,0.59398
2354.13254,0.58262
2352.07293,0.57091
2350.01332,0.55903
2347.95371,0.54703
2345.89410,0.53451
2343.83449,0.52171
2341.77488,0.50895
2339.71528,0.49604
2337.65567,0.48309
2335.59606,0.47013
2333.53645,0.45740
2331.47684,0.44486
2329.41723,0.43253
2327.35763,0.42050
2325.29802,0.40798
2323.23841,0.39449
2321.17880,0.38086
2319.11919,0.36820
2317.05958,0.35663
2314.99997,0.34539
2312.94037,0.33410
2310.88076,0.32281
2308.82115,0.31163
2306.76154,0.30092
2304.70193,0.29089
2302.64232,0.28130
2300.58271,0.27203
2298.52311,0.26320
2296.46350,0.25471
2294.40389,0.24640
2292.34428,0.23815
2290.28467,0.23019
2288.22506,0.22247
2286.16545,0.21474
2284.10585,0.20746
2282.04624,0.20060
2279.98663,0.19359
2277.92702,0.18680
2275.86741,0.18072
2273.80780,0.17475
2271.74820,0.16853
2269.68859,0.16267
2267.62898,0.15771
2265.56937,0.15324
2263.50976,0.14869
2261.45015,0.14407
2259.39054,0.13932
2257.33094,0.13450
2255.27133,0.13013
2253.21172,0.12623
2251.15211,0.12264
2249.09250,0.11920
2247.03289,0.11535
2244.97328,0.11089
2242.91368,0.10649
2240.85407,0.10325
2238.79446,0.10126
2236.73485,0.09905
2234.67524,0.09604
2232.61563,0.09269
2230.55602,0.08927
2228.49642,0.08708
2226.43681,0.08596
2224.37720,0.08369
2222.31759,0.08085
2220.25798,0.07860
2218.19837,0.07630
2216.13877,0.07404
2214.07916,0.07167
2212.01955,0.06891
2209.95994,0.06675
2207.90033,0.06553
2205.84072,0.06415
2203.78111,0.06152
2201.72151,0.05844
2199.66190,0.05637
2197.60229,0.05512
2195.54268,0.05381
2193.48307,0.05224
2191.42346,0.05069
2189.36385,0.04884
2187.30425,0.04719
2185.24464,0.04669
2183.18503,0.04649
2181.12542,0.04518
2179.06581,0.04307
2177.00620,0.04082
2174.94659,0.03870
2172.88699,0.03779
2170.82738,0.03799
2168.76777,0.03773
2166.70816,0.03661
2164.64855,0.03478
2162.58894,0.03278
2160.52934,0.03173
2158.46973,0.03116
2156.41012,0.03043
2154.35051,0.03027
2152.29090,0.03060
2150.23129,0.03059
2148.17168,0.03035
2146.11208,0.03001
2144.05247,0.02919
2141.99286,0.02817
2139.93325,0.02755
2137.87364,0.02720
2135.81403,0.02685
2133.75442,0.02689
2131.69482,0.02722
2129.63521,0.02707
2127.57560,0.02668
2125.51599,0.02656
2123.45638,0.02598
2121.39677,0.02467
2119.33716,0.02378
2117.27756,0.02335
2115.21795,0.02251
2113.15834,0.02169
2111.09873,0.02145
2109.03912,0.02116
2106.97951,0.02052
2104.91991,0.01973
2102.86030,0.01882
2100.80069,0.01814
2098.74108,0.01812
2096.68147,0.01822
2094.62186,0.01759
2092.56225,0.01640
2090.50265,0.01563
2088.44304,0.01565
2086.38343,0.01593
2084.32382,0.01600
2082.26421,0.01578
2080.20460,0.01547
2078.14499,0.01536
2076.08539,0.01527
2074.02578,0.01507
2071.96617,0.01457
2069.90656,0.01349
2067.84695,0.01256
2065.78734,0.01242
2063.72773,0.01256
2061.66813,0.01248
2059.60852,0.01232
2057.54891,0.01224
2055.48930,0.01194
2053.42969,0.01090
2051.37008,0.00943
2049.31048,0.00853
2047.25087,0.00845
2045.19126,0.00864
2043.13165,0.00870
2041.07204,0.00861
2039.01243,0.00834
2036.95282,0.00777
2034.89322,0.00698
2032.83361,0.00652
2030.77400,0.00692
2028.71439,0.00747
2026.65478,0.00720
2024.59517,0.00676
2022.53556,0.00726
2020.47596,0.00778
2018.41635,0.00694
2016.35674,0.00595
2014.29713,0.00637
2012.23752,0.00736
2010.17791,0.00743
2008.11830,0.00671
2006.05870,0.00639
2003.99909,0.00657
2001.93948,0.00651
1999.87987,0.00605
1997.82026,0.00575
1995.76065,0.00588
1993.70105,0.00586
1991.64144,0.00567
1989.58183,0.00566
1987.52222,0.00590
1985.46261,0.00663
1983.40300,0.00687
1981.34339,0.00614
1979.28379,0.00586
1977.22418,0.00610
1975.16457,0.00557
1973.10496,0.00478
1971.04535,0.00470
1968.98574,0.00490
1966.92613,0.00499
1964.86653,0.00527
1962.80692,0.00525
1960.74731,0.00466
1958.68770,0.00527
1956.62809,0.00704
1954.56848,0.00727
1952.50887,0.00601
1950.44927,0.00514
1948.38966,0.00515
1946.33005,0.00553
1944.27044,0.00607
1942.21083,0.00653
1940.15122,0.00609
1938.09162,0.00523
1936.03201,0.00498
1933.97240,0.00496
1931.91279,0.00502
1929.85318,0.00542
1927.79357,0.00585
1925.73396,0.00608
1923.67436,0.00591
1921.61475,0.00547
1919.55514,0.00521
1917.49553,0.00533
1915.43592,0.00593
1913.37631,0.00671
1911.31670,0.00686
1909.25710,0.00631
1907.19749,0.00590
1905.13788,0.00593
1903.07827,0.00620
1901.01866,0.00630
1898.95905,0.00623
1896.89944,0.00659
1894.83984,0.00719
1892.78023,0.00713
1890.72062,0.00659
1888.66101,0.00641
1886.60140,0.00623
1884.54179,0.00587
1882.48219,0.00573
1880.42258,0.00588
1878.36297,0.00622
1876.30336,0.00669
1874.24375,0.00716
1872.18414,0.00733
1870.12453,0.00717
1868.06493,0.00711
1866.00532,0.00725
1863.94571,0.00746
1861.88610,0.00766
1859.82649,0.00758
1857.76688,0.00737
1855.70727,0.00740
1853.64767,0.00743
1851.58806,0.00753
1849.52845,0.00781
1847.46884,0.00785
1845.40923,0.00783
1843.34962,0.00796
1841.29002,0.00803
1839.23041,0.00822
1837.17080,0.00849
1835.11119,0.00867
1833.05158,0.00880
1830.99197,0.00885
1828.93236,0.00866
1826.87276,0.00839
1824.81315,0.00850
1822.75354,0.00891
1820.69393,0.00918
1818.63432,0.00931
1816.57471,0.00945
1814.51510,0.00953
1812.45550,0.00944
1810.39589,0.00941
1808.33628,0.00962
1806.27667,0.00985
1804.21706,0.00990
1802.15745,0.00978
1800.09784,0.00965
1798.03824,0.00961
1795.97863,0.00977
1793.91902,0.01020
1791.85941,0.01051
1789.79980,0.01040
1787.74019,0.01030
1785.68059,0.01036
1783.62098,0.01039
1781.56137,0.01035
1779.50176,0.01037
1777.44215,0.01058
1775.38254,0.01086
1773.32293,0.01110
1771.26333,0.01136
1769.20372,0.01156
1767.14411,0.01151
1765.08450,0.01138
1763.02489,0.01143
1760.96528,0.01163
1758.90567,0.01176
1756.84607,0.01184
1754.78646,0.01191
1752.72685,0.01190
1750.66724,0.01194
1748.60763,0.01222
1746.54802,0.01261
1744.48841,0.01281
1742.42881,0.01284
1740.36920,0.01290
1738.30959,0.01302
1736.24998,0.01308
1734.19037,0.01317
1732.13076,0.01330
1730.07116,0.01334
1728.01155,0.01338
1725.95194,0.01340
1723.89233,0.01338
1721.83272,0.01341
1719.77311,0.01355
1717.71350,0.01388
1715.65390,0.01425
1713.59429,0.01438
1711.53468,0.01444
1709.47507,0.01454
1707.41546,0.01465
1705.35585,0.01470
1703.29624,0.01476
1701.23664,0.01506
1699.17703,0.01549
1697.11742,0.01564
1695.05781,0.01561
1692.99820,0.01556
1690.93859,0.01563
1688.87898,0.01577
1686.81938,0.01589
1684.75977,0.01612
1682.70016,0.01640
1680.64055,0.01649
1678.58094,0.01656
1676.52133,0.01673
1674.46173,0.01695
1672.40212,0.01706
1670.34251,0.01714
1668.28290,0.01736
1666.22329,0.01761
1664.16368,0.01786
1662.10407,0.01804
1660.04447,0.01815
1657.98486,0.01827
1655.92525,0.01831
1653.86564,0.01844
1651.80603,0.01888
1649.74642,0.01907
1647.68681,0.01905
1645.62721,0.01918
1643.56760,0.01945
1641.50799,0.01972
1639.44838,0.01996
1637.38877,0.02013
1635.32916,0.02034
1633.26955,0.02063
1631.20995,0.02079
1629.15034,0.02088
1627.09073,0.02098
1625.03112,0.02108
1622.97151,0.02130
1620.91190,0.02154
1618.85230,0.02162
1616.79269,0.02170
1614.73308,0.02193
1612.67347,0.02218
1610.61386,0.02240
1608.55425,0.02254
1606.49464,0.02273
1604.43504,0.02293
1602.37543,0.02303
1600.31582,0.02311
1598.25621,0.02323
1596.19660,0.02349
1594.13699,0.02384
1592.07738,0.02407
1590.01778,0.02406
1587.95817,0.02401
1585.89856,0.02412
1583.83895,0.02437
1581.77934,0.02460
1579.71973,0.02477
1577.66012,0.02494
1575.60052,0.02514
1573.54091,0.02519
1571.48130,0.02513
1569.42169,0.02511
1567.36208,0.02520
1565.30247,0.02538
1563.24287,0.02553
1561.18326,0.02555
1559.12365,0.02560
1557.06404,0.02557
1555.00443,0.02540
1552.94482,0.02532
1550.88521,0.02528
1548.82561,0.02526
1546.76600,0.02534
1544.70639,0.02539
1542.64678,0.02533
1540.58717,0.02551
1538.52756,0.02570
1536.46795,0.02552
1534.40835,0.02521
1532.34874,0.02502
1530.28913,0.02501
1528.22952,0.02504
1526.16991,0.02498
1524.11030,0.02481
1522.05069,0.02460
1519.99109,0.02446
1517.93148,0.02454
1515.87187,0.02464
1513.81226,0.02459
1511.75265,0.02452
1509.69304,0.02444
1507.63344,0.02427
1505.57383,0.02423
1503.51422,0.02429
1501.45461,0.02425
1499.39500,0.02420
1497.33539,0.02422
1495.27578,0.02418
1493.21618,0.02414
1491.15657,0.02420
1489.09696,0.02427
1487.03735,0.02429
1484.97774,0.02430
1482.91813,0.02430
1480.85852,0.02435
1478.79892,0.02437
1476.73931,0.02423
1474.67970,0.02409
1472.62009,0.02407
1470.56048,0.02404
1468.50087,0.02399
1466.44126,0.02398
1464.38166,0.02389
1462.32205,0.02362
1460.26244,0.02332
1458.20283,0.02309
1456.14322,0.02288
1454.08361,0.02264
1452.02401,0.02234
1449.96440,0.02203
1447.90479,0.02172
1445.84518,0.02148
1443.78557,0.02130
1441.72596,0.02105
1439.66635,0.02065
1437.60675,0.02021
1435.54714,0.01988
1433.48753,0.01961
1431.42792,0.01926
1429.36831,0.01893
1427.30870,0.01868
1425.24909,0.01838
1423.18949,0.01806
1421.12988,0.01776
1419.07027,0.01744
1417.01066,0.01718
1414.95105,0.01698
1412.89144,0.01674
1410.83183,0.01651
1408.77223,0.01633
1406.71262,0.01614
1404.65301,0.01596
1402.59340,0.01574
1400.53379,0.01549
1398.47418,0.01528
1396.41458,0.01523
1394.35497,0.01522
1392.29536,0.01510
1390.23575,0.01494
1388.17614,0.01478
1386.11653,0.01467
1384.05692,0.01464
1381.99732,0.01462
1379.93771,0.01453
1377.87810,0.01438
1375.81849,0.01431
1373.75888,0.01436
1371.69927,0.01438
1369.63966,0.01435
1367.58006,0.01440
1365.52045,0.01450
1363.46084,0.01451
1361.40123,0.01437
1359.34162,0.01420
1357.28201,0.01418
1355.22240,0.01435
1353.16280,0.01451
1351.10319,0.01458
1349.04358,0.01461
1346.98397,0.01468
1344.92436,0.01477
1342.86475,0.01485
1340.80515,0.01506
1338.74554,0.01537
1336.68593,0.01552
1334.62632,0.01550
1332.56671,0.01555
1330.50710,0.01568
1328.44749,0.01577
1326.38789,0.01587
1324.32828,0.01610
1322.26867,0.01639
1320.20906,0.01662
1318.14945,0.01679
1316.08984,0.01693
1314.03023,0.01716
1311.97063,0.01750
1309.91102,0.01785
1307.85141,0.01823
1305.79180,0.01869
1303.73219,0.01909
1301.67258,0.01947
1299.61297,0.02002
1297.55337,0.02066
1295.49376,0.02120
1293.43415,0.02167
1291.37454,0.02219
1289.31493,0.02286
1287.25532,0.02368
1285.19572,0.02453
1283.13611,0.02539
1281.07650,0.02636
1279.01689,0.02744
1276.95728,0.02856
1274.89767,0.02973
1272.83806,0.03107
1270.77846,0.03263
1268.71885,0.03436
1266.65924,0.03622
1264.59963,0.03834
1262.54002,0.04074
1260.48041,0.04335
1258.42080,0.04621
1256.36120,0.04942
1254.30159,0.05296
1252.24198,0.05686
1250.18237,0.06113
1248.12276,0.06575
1246.06315,0.07082
1244.00354,0.07637
1241.94394,0.08233
1239.88433,0.08871
1237.82472,0.09550
1235.76511,0.10263
1233.70550,0.11002
1231.64589,0.11761
1229.58629,0.12546
1227.52668,0.13364
1225.46707,0.14198
1223.40746,0.15018
1221.34785,0.15816
1219.28824,0.16600
1217.22863,0.17370
1215.16903,0.18101
1213.10942,0.18764
1211.04981,0.19335
1208.99020,0.19789
1206.93059,0.20098
1204.87098,0.20232
1202.81137,0.20176
1200.75177,0.19930
1198.69216,0.19493
1196.63255,0.18883
1194.57294,0.18142
1192.51333,0.17305
1190.45372,0.16402
1188.39411,0.15479
1186.33451,0.14563
1184.27490,0.13674
1182.21529,0.12832
1180.15568,0.12043
1178.09607,0.11318
1176.03646,0.10671
1173.97686,0.10088
1171.91725,0.09551
1169.85764,0.09064
1167.79803,0.08623
1165.73842,0.08227
1163.67881,0.07877
1161.61920,0.07560
1159.55960,0.07260
1157.49999,0.06981
1155.44038,0.06730
1153.38077,0.06504
1151.32116,0.06299
1149.26155,0.06118
1147.20194,0.05954
1145.14234,0.05795
1143.08273,0.05643
1141.02312,0.05511
1138.96351,0.05398
1136.90390,0.05288
1134.84429,0.05180
1132.78468,0.05081
1130.72508,0.04984
1128.66547,0.04886
1126.60586,0.04795
1124.54625,0.04716
1122.48664,0.04647
1120.42703,0.04580
1118.36743,0.04511
1116.30782,0.04453
1114.24821,0.04410
1112.18860,0.04368
1110.12899,0.04317
1108.06938,0.04270
1106.00977,0.04228
1103.95017,0.04178
1101.89056,0.04131
1099.83095,0.04103
1097.77134,0.04078
1095.71173,0.04050
1093.65212,0.04019
1091.59251,0.03979
1089.53291,0.03947
1087.47330,0.03933
1085.41369,0.03912
1083.35408,0.03881
1081.29447,0.03857
1079.23486,0.03840
1077.17525,0.03823
1075.11565,0.03796
1073.05604,0.03769
1070.99643,0.03750
1068.93682,0.03731
1066.87721,0.03711
1064.81760,0.03694
1062.75800,0.03676
1060.69839,0.03666
1058.63878,0.03658
1056.57917,0.03642
1054.51956,0.03619
1052.45995,0.03600
1050.40034,0.03584
1048.34074,0.03565
1046.28113,0.03555
1044.22152,0.03556
1042.16191,0.03550
1040.10230,0.03531
1038.04269,0.03510
1035.98308,0.03495
1033.92348,0.03485
1031.86387,0.03478
1029.80426,0.03476
1027.74465,0.03477
1025.68504,0.03474
1023.62543,0.03459
1021.56582,0.03441
1019.50622,0.03426
1017.44661,0.03413
1015.38700,0.03411
1013.32739,0.03418
1011.26778,0.03417
1009.20817,0.03412
1007.14857,0.03410
1005.08896,0.03399
1003.02935,0.03377
1000.96974,0.03359
998.91013,0.03356
996.85052,0.03354
994.79091,0.03347
992.73131,0.03346
990.67170,0.03348
988.61209,0.03343
986.55248,0.03333
984.49287,0.03320
982.43326,0.03303
980.37365,0.03289
978.31405,0.03285
976.25444,0.03291
974.19483,0.03302
972.13522,0.03309
970.07561,0.03303
968.01600,0.03285
965.95639,0.03262
963.89679,0.03243
961.83718,0.03237
959.77757,0.03249
957.71796,0.03256
955.65835,0.03247
953.59874,0.03240
951.53914,0.03235
949.47953,0.03225
947.41992,0.03223
945.36031,0.03224
943.30070,0.03221
941.24109,0.03215
939.18148,0.03212
937.12188,0.03218
935.06227,0.03231
933.00266,0.03233
930.94305,0.03215
928.88344,0.03200
926.82383,0.03196
924.76422,0.03184
922.70462,0.03170
920.64501,0.03170
918.58540,0.03174
916.52579,0.03171
914.46618,0.03162
912.40657,0.03150
910.34696,0.03139
908.28736,0.03136
906.22775,0.03145
904.16814,0.03154
902.10853,0.03148
900.04892,0.03132
897.98931,0.03121
895.92971,0.03118
893.87010,0.03117
891.81049,0.03114
889.75088,0.03116
887.69127,0.03117
885.63166,0.03109
883.57205,0.03108
881.51245,0.03118
879.45284,0.03128
877.39323,0.03127
875.33362,0.03119
873.27401,0.03109
871.21440,0.03108
869.15479,0.03112
867.09519,0.03103
865.03558,0.03092
862.97597,0.03089
860.91636,0.03084
858.85675,0.03078
856.79714,0.03073
854.73753,0.03063
852.67793,0.03059
850.61832,0.03067
848.55871,0.03080
846.49910,0.03089
844.43949,0.03081
842.37988,0.03066
840.32028,0.03073
838.26067,0.03080
836.20106,0.03064
834.14145,0.03059
832.08184,0.03074
830.02223,0.03081
827.96262,0.03073
825.90302,0.03066
823.84341,0.03078
821.78380,0.03093
819.72419,0.03090
817.66458,0.03089
815.60497,0.03091
813.54536,0.03087
811.48576,0.03090
809.42615,0.03100
807.36654,0.03104
805.30693,0.03103
803.24732,0.03109
801.18771,0.03121
799.12810,0.03129
797.06850,0.03134
795.00889,0.03139
792.94928,0.03150
790.88967,0.03161
788.83006,0.03167
786.77045,0.03171
784.71085,0.03184
782.65124,0.03207
780.59163,0.03218
778.53202,0.03217
776.47241,0.03225
774.41280,0.03243
772.35319,0.03263
770.29359,0.03287
768.23398,0.03300
766.17437,0.03295
764.11476,0.03293
762.05515,0.03309
759.99554,0.03328
757.93593,0.03342
755.87633,0.03369
753.81672,0.03395
751.75711,0.03403
749.69750,0.03417
747.63789,0.03450
745.57828,0.03483
743.51867,0.03507
741.45907,0.03525
739.39946,0.03545
737.33985,0.03572
735.28024,0.03606
733.22063,0.03633
731.16102,0.03652
729.10142,0.03674
727.04181,0.03693
724.98220,0.03713
722.92259,0.03745
720.86298,0.03787
718.80337,0.03829
716.74376,0.03870
714.68416,0.03916
712.62455,0.03960
710.56494,0.03991
708.50533,0.04027
706.44572,0.04081
704.38611,0.04132
702.32650,0.04178
700.26690,0.04232
698.20729,0.04296
696.14768,0.04368
694.08807,0.04444
692.02846,0.04517
689.96885,0.04571
687.90924,0.04616
685.84964,0.04688
683.79003,0.04780
681.73042,0.04863
679.67081,0.04943
677.61120,0.05040
675.55159,0.05147
673.49199,0.05247
671.43238,0.05334
669.37277,0.05443
667.31316,0.05597
665.25355,0.05720
663.19394,0.05818
661.13433,0.05920
659.07473,0.06022
657.01512,0.06132
654.95551,0.06261
652.89590,0.06421
650.83629,0.06594
648.77668,0.06747
646.71707,0.06881
644.65747,0.07031
642.59786,0.07197
640.53825,0.07358
638.47864,0.07514
636.41903,0.07668
634.35942,0.07811
632.29981,0.07958
630.24021,0.08120
628.18060,0.08276
626.12099,0.08438
624.06138,0.08614
622.00177,0.08782
619.94216,0.08955
617.88256,0.09142
615.82295,0.09320
613.76334,0.09478
611.70373,0.09631
609.64412,0.09798
607.58451,0.09968
605.52490,0.10131
603.46530,0.10311
601.40569,0.10511
599.34608,0.10698
597.28647,0.10857
595.22686,0.11018
593.16725,0.11192
591.10764,0.11380
589.04804,0.11575
586.98843,0.11752
584.92882,0.11905
582.86921,0.12049
580.80960,0.12205
578.74999,0.12384
576.69039,0.12573
574.63078,0.12746
572.57117,0.12881
570.51156,0.13016
568.45195,0.13183
566.39234,0.13345
564.33273,0.13503
562.27313,0.13683
560.21352,0.13857
558.15391,0.13991
556.09430,0.14135
554.03469,0.14316
551.97508,0.14489
549.91547,0.14635
547.85587,0.14756
545.79626,0.14873
543.73665,0.15001
541.67704,0.15128
539.61743,0.15247
537.55782,0.15389
535.49821,0.15560
533.43861,0.15729
531.37900,0.15870
529.31939,0.15994
527.25978,0.16118
525.20017,0.16233
523.14056,0.16323
521.08096,0.16413
519.02135,0.16546
516.96174,0.16683
514.90213,0.16775
512.84252,0.16868
510.78291,0.16987
508.72330,0.17083
506.66370,0.17159
504.60409,0.17248
502.54448,0.17352
500.48487,0.17453
498.42526,0.17539
496.36565,0.17608
494.30604,0.17665
492.24644,0.17745
490.18683,0.17852
488.12722,0.17945
486.06761,0.18031
484.00800,0.18109
481.94839,0.18151
479.88878,0.18179
477.82918,0.18210
475.76957,0.18256
473.70996,0.18341
471.65035,0.18422
469.59074,0.18449
467.53113,0.18449
465.47153,0.18463
463.41192,0.18484
461.35231,0.18496
459.29270,0.18542
457.23309,0.18608
455.17348,0.18597
453.11387,0.18567
451.05427,0.18601
448.99466,0.18643
446.93505,0.18670
444.87544,0.18698
442.81583,0.18718
440.75622,0.18714
438.69661,0.18702
436.63701,0.18755
434.57740,0.18823
432.51779,0.18766
430.45818,0.18623
428.39857,0.18507
426.33896,0.18484
424.27935,0.18528
422.21975,0.18538
420.16014,0.18462
418.10053,0.18396
416.04092,0.18429
413.98131,0.18440
411.92170,0.18420
409.86210,0.18442
407.80249,0.18406
405.74288,0.18260
403.68327,0.18079
401.62366,0.17893
399.56405,0.17834
