3997.70013,0.05196
3995.64052,0.05219
3993.58091,0.05195
3991.52130,0.05141
3989.46170,0.05103
3987.40209,0.05062
3985.34248,0.05024
3983.28287,0.05054
3981.22326,0.05138
3979.16365,0.05175
3977.10404,0.05152
3975.04444,0.05141
3972.98483,0.05173
3970.92522,0.05247
3968.86561,0.05301
3966.80600,0.05243
3964.74639,0.05127
3962.68679,0.05079
3960.62718,0.05093
3958.56757,0.05094
3956.50796,0.05086
3954.44835,0.05066
3952.38874,0.05006
3950.32913,0.05018
3948.26953,0.05105
3946.20992,0.05093
3944.15031,0.05030
3942.09070,0.05049
3940.03109,0.05090
3937.97148,0.05085
3935.91187,0.05061
3933.85227,0.05037
3931.79266,0.05045
3929.73305,0.05059
3927.67344,0.05024
3925.61383,0.04960
3923.55422,0.04931
3921.49461,0.04978
3919.43501,0.05033
3917.37540,0.05012
3915.31579,0.04959
3913.25618,0.04946
3911.19657,0.04940
3909.13696,0.04934
3907.07736,0.04954
3905.01775,0.04947
3902.95814,0.04856
3900.89853,0.04785
3898.83892,0.04800
3896.77931,0.04840
3894.71970,0.04894
3892.66010,0.04956
3890.60049,0.04971
3888.54088,0.04954
3886.48127,0.04936
3884.42166,0.04894
3882.36205,0.04888
3880.30244,0.04936
3878.24284,0.04942
3876.18323,0.04898
3874.12362,0.04890
3872.06401,0.04932
3870.00440,0.04947
3867.94479,0.04949
3865.88518,0.04980
3863.82558,0.04982
3861.76597,0.04912
3859.70636,0.04848
3857.64675,0.04842
3855.58714,0.04845
3853.52753,0.04784
3851.46793,0.04721
3849.40832,0.04737
3847.34871,0.04770
3845.28910,0.04778
3843.22949,0.04778
3841.16988,0.04772
3839.11027,0.04721
3837.05067,0.04678
3834.99106,0.04708
3832.93145,0.04770
3830.87184,0.04829
3828.81223,0.04863
3826.75262,0.04844
3824.69301,0.04780
3822.63341,0.04728
3820.57380,0.04694
3818.51419,0.04643
3816.45458,0.04589
3814.39497,0.04580
3812.33536,0.04601
3810.27575,0.04623
3808.21615,0.04668
3806.15654,0.04750
3804.09693,0.04840
3802.03732,0.04869
3799.97771,0.04815
3797.91810,0.04754
3795.85850,0.04705
3793.79889,0.04676
3791.73928,0.04679
3789.67967,0.04676
3787.62006,0.04659
3785.56045,0.04681
3783.50084,0.04728
3781.44124,0.04739
3779.38163,0.04708
3777.32202,0.04630
3775.26241,0.04554
3773.20280,0.04534
3771.14319,0.04529
3769.08358,0.04519
3767.02398,0.04540
3764.96437,0.04566
3762.90476,0.04586
3760.84515,0.04586
3758.78554,0.04569
3756.72593,0.04575
3754.66632,0.04574
3752.60672,0.04554
3750.54711,0.04514
3748.48750,0.04445
3746.42789,0.04421
3744.36828,0.04509
3742.30867,0.04608
3740.24907,0.04588
3738.18946,0.04530
3736.12985,0.04527
3734.07024,0.04595
3732.01063,0.04632
3729.95102,0.04550
3727.89141,0.04444
3725.83181,0.04406
3723.77220,0.04396
3721.71259,0.04389
3719.65298,0.04400
3717.59337,0.04403
3715.53376,0.04392
3713.47415,0.04380
3711.41455,0.04352
3709.35494,0.04323
3707.29533,0.04372
3705.23572,0.04426
3703.17611,0.04400
3701.11650,0.04385
3699.05689,0.04427
3696.99729,0.04453
3694.93768,0.04453
3692.87807,0.04453
3690.81846,0.04423
3688.75885,0.04348
3686.69924,0.04337
3684.63964,0.04377
3682.58003,0.04382
3680.52042,0.04392
3678.46081,0.04453
3676.40120,0.04503
3674.34159,0.04464
3672.28198,0.04379
3670.22238,0.04316
3668.16277,0.04253
3666.10316,0.04203
3664.04355,0.04250
3661.98394,0.04355
3659.92433,0.04380
3657.86472,0.04336
3655.80512,0.04307
3653.74551,0.04304
3651.68590,0.04316
3649.62629,0.04364
3647.56668,0.04416
3645.50707,0.04396
3643.44746,0.04344
3641.38786,0.04340
3639.32825,0.04380
3637.26864,0.04368
3635.20903,0.04327
3633.14942,0.04342
3631.08981,0.04349
3629.03021,0.04328
3626.97060,0.04376
3624.91099,0.04424
3622.85138,0.04401
3620.79177,0.04357
3618.73216,0.04411
3616.67255,0.04547
3614.61295,0.04618
3612.55334,0.04616
3610.49373,0.04597
3608.43412,0.04566
3606.37451,0.04548
3604.31490,0.04546
3602.25529,0.04530
3600.19569,0.04520
3598.13608,0.04569
3596.07647,0.04626
3594.01686,0.04617
3591.95725,0.04594
3589.89764,0.04605
3587.83804,0.04622
3585.77843,0.04638
3583.71882,0.04652
3581.65921,0.04677
3579.59960,0.04737
3577.53999,0.04802
3575.48038,0.04823
3573.42078,0.04816
3571.36117,0.04811
3569.30156,0.04846
3567.24195,0.04941
3565.18234,0.04967
3563.12273,0.04906
3561.06312,0.04892
3559.00352,0.04922
3556.94391,0.04929
3554.88430,0.04911
3552.82469,0.04917
3550.76508,0.04968
3548.70547,0.05004
3546.64586,0.05016
3544.58626,0.05063
3542.52665,0.05127
3540.46704,0.05146
3538.40743,0.05126
3536.34782,0.05117
3534.28821,0.05133
3532.22861,0.05168
3530.16900,0.05212
3528.10939,0.05246
3526.04978,0.05288
3523.99017,0.05329
3521.93056,0.05344
3519.87095,0.05345
3517.81135,0.05338
3515.75174,0.05355
3513.69213,0.05395
3511.63252,0.05411
3509.57291,0.05430
3507.51330,0.05472
3505.45369,0.05510
3503.39409,0.05554
3501.33448,0.05576
3499.27487,0.05545
3497.21526,0.05509
3495.15565,0.05476
3493.09604,0.05430
3491.03643,0.05424
3488.97683,0.05472
3486.91722,0.05516
3484.85761,0.05557
3482.79800,0.05607
3480.73839,0.05636
3478.67878,0.05643
3476.61918,0.05668
3474.55957,0.05715
3472.49996,0.05712
3470.44035,0.05655
3468.38074,0.05625
3466.32113,0.05636
3464.26152,0.05674
3462.20192,0.05720
3460.14231,0.05749
3458.08270,0.05751
3456.02309,0.05719
3453.96348,0.05668
3451.90387,0.05636
3449.84426,0.05642
3447.78466,0.05665
3445.72505,0.05688
3443.66544,0.05712
3441.60583,0.05744
3439.54622,0.05790
3437.48661,0.05839
3435.42700,0.05858
3433.36740,0.05842
3431.30779,0.05821
3429.24818,0.05797
3427.18857,0.05764
3425.12896,0.05776
3423.06935,0.05842
3421.00975,0.05904
3418.95014,0.05946
3416.89053,0.05961
3414.83092,0.05933
3412.77131,0.05920
3410.71170,0.05972
3408.65209,0.06038
3406.59249,0.06087
3404.53288,0.06114
3402.47327,0.06135
3400.41366,0.06180
3398.35405,0.06230
3396.29444,0.06267
3394.23483,0.06274
3392.17523,0.06261
3390.11562,0.06289
3388.05601,0.06317
3385.99640,0.06290
3383.93679,0.06267
3381.87718,0.06288
3379.81757,0.06355
3377.75797,0.06424
3375.69836,0.06402
3373.63875,0.06340
3371.57914,0.06384
3369.51953,0.06472
3367.45992,0.06499
3365.40032,0.06526
3363.34071,0.06582
3361.28110,0.06630
3359.22149,0.06699
3357.16188,0.06782
3355.10227,0.06830
3353.04266,0.06866
3350.98306,0.06934
3348.92345,0.07016
3346.86384,0.07117
3344.80423,0.07245
3342.74462,0.07324
3340.68501,0.07362
3338.62540,0.07463
3336.56580,0.07647
3334.50619,0.07840
3332.44658,0.07979
3330.38697,0.08091
3328.32736,0.08246
3326.26775,0.08447
3324.20814,0.08658
3322.14854,0.08843
3320.08893,0.08992
3318.02932,0.09154
3315.96971,0.09364
3313.91010,0.09608
3311.85049,0.09869
3309.79089,0.10157
3307.73128,0.10458
3305.67167,0.10733
3303.61206,0.10992
3301.55245,0.11275
3299.49284,0.11570
3297.43323,0.11836
3295.37363,0.12094
3293.31402,0.12404
3291.25441,0.12757
3289.19480,0.13061
3287.13519,0.13322
3285.07558,0.13587
3283.01597,0.13776
3280.95637,0.13875
3278.89676,0.13976
3276.83715,0.14084
3274.77754,0.14155
3272.71793,0.14176
3270.65832,0.14143
3268.59871,0.14083
3266.53911,0.14019
3264.47950,0.13917
3262.41989,0.13762
3260.36028,0.13606
3258.30067,0.13478
3256.24106,0.13335
3254.18146,0.13165
3252.12185,0.13006
3250.06224,0.12840
3248.00263,0.12641
3245.94302,0.12441
3243.88341,0.12271
3241.82380,0.12121
3239.76420,0.11964
3237.70459,0.11821
3235.64498,0.11743
3233.58537,0.11645
3231.52576,0.11480
3229.46615,0.11333
3227.40654,0.11226
3225.34694,0.11141
3223.28733,0.11073
3221.22772,0.10981
3219.16811,0.10836
3217.10850,0.10711
3215.04889,0.10643
3212.98928,0.10545
3210.92968,0.10404
3208.87007,0.10292
3206.81046,0.10204
3204.75085,0.10106
3202.69124,0.10000
3200.63163,0.09904
3198.57203,0.09836
3196.51242,0.09784
3194.45281,0.09719
3192.39320,0.09629
3190.33359,0.09520
3188.27398,0.09405
3186.21437,0.09293
3184.15477,0.09202
3182.09516,0.09130
3180.03555,0.09076
3177.97594,0.09048
3175.91633,0.09008
3173.85672,0.08913
3171.79711,0.08769
3169.73751,0.08633
3167.67790,0.08574
3165.61829,0.08572
3163.55868,0.08560
3161.49907,0.08499
3159.43946,0.08381
3157.37985,0.08263
3155.32025,0.08202
3153.26064,0.08164
3151.20103,0.08088
3149.14142,0.07992
3147.08181,0.07917
3145.02220,0.07861
3142.96260,0.07839
3140.90299,0.07848
3138.84338,0.07827
3136.78377,0.07777
3134.72416,0.07745
3132.66455,0.07726
3130.60494,0.07692
3128.54534,0.07647
3126.48573,0.07616
3124.42612,0.07590
3122.36651,0.07557
3120.30690,0.07559
3118.24729,0.07593
3116.18768,0.07594
3114.12808,0.07549
3112.06847,0.07503
3110.00886,0.07495
3107.94925,0.07519
3105.88964,0.07524
3103.83003,0.07508
3101.77042,0.07514
3099.71082,0.07550
3097.65121,0.07589
3095.59160,0.07610
3093.53199,0.07618
3091.47238,0.07633
3089.41277,0.07679
3087.35317,0.07745
3085.29356,0.07800
3083.23395,0.07830
3081.17434,0.07825
3079.11473,0.07810
3077.05512,0.07813
3074.99551,0.07831
3072.93591,0.07847
3070.87630,0.07860
3068.81669,0.07877
3066.75708,0.07890
3064.69747,0.07871
3062.63786,0.07816
3060.57825,0.07752
3058.51865,0.07704
3056.45904,0.07694
3054.39943,0.07670
3052.33982,0.07607
3050.28021,0.07553
3048.22060,0.07531
3046.16099,0.07536
3044.10139,0.07538
3042.04178,0.07482
3039.98217,0.07366
3037.92256,0.07278
3035.86295,0.07253
3033.80334,0.07214
3031.74374,0.07141
3029.68413,0.07109
3027.62452,0.07123
3025.56491,0.07103
3023.50530,0.07037
3021.44569,0.06982
3019.38608,0.06937
3017.32648,0.06902
3015.26687,0.06905
3013.20726,0.06887
3011.14765,0.06826
3009.08804,0.06778
3007.02843,0.06768
3004.96882,0.06772
3002.90922,0.06761
3000.84961,0.06729
2998.79000,0.06710
2996.73039,0.06739
2994.67078,0.06795
2992.61117,0.06842
2990.55156,0.06871
2988.49196,0.06888
2986.43235,0.06926
2984.37274,0.06984
2982.31313,0.06998
2980.25352,0.06979
2978.19391,0.07006
2976.13431,0.07062
2974.07470,0.07097
2972.01509,0.07125
2969.95548,0.07156
2967.89587,0.07153
2965.83626,0.07123
2963.77665,0.07102
2961.71705,0.07065
2959.65744,0.07008
2957.59783,0.06980
2955.53822,0.06985
2953.47861,0.07002
2951.41900,0.07004
2949.35939,0.06991
2947.29979,0.06996
2945.24018,0.07021
2943.18057,0.07071
2941.12096,0.07144
2939.06135,0.07217
2937.00174,0.07300
2934.94213,0.07405
2932.88253,0.07508
2930.82292,0.07569
2928.76331,0.07589
2926.70370,0.07601
2924.64409,0.07614
2922.58448,0.07605
2920.52488,0.07566
2918.46527,0.07517
2916.40566,0.07448
2914.34605,0.07342
2912.28644,0.07222
2910.22683,0.07127
2908.16722,0.07059
2906.10762,0.06985
2904.04801,0.06916
2901.98840,0.06893
2899.92879,0.06891
2897.86918,0.06868
2895.80957,0.06821
2893.74996,0.06768
2891.69036,0.06713
2889.63075,0.06668
2887.57114,0.06654
2885.51153,0.06655
2883.45192,0.06639
2881.39231,0.06644
2879.33271,0.06702
2877.27310,0.06749
2875.21349,0.06745
2873.15388,0.06731
2871.09427,0.06718
2869.03466,0.06691
2866.97505,0.06663
2864.91545,0.06641
2862.85584,0.06625
2860.79623,0.06615
2858.73662,0.06609
2856.67701,0.06628
2854.61740,0.06654
2852.55779,0.06640
2850.49819,0.06589
2848.43858,0.06519
2846.37897,0.06435
2844.31936,0.06359
2842.25975,0.06285
2840.20014,0.06227
2838.14053,0.06218
2836.08093,0.06207
2834.02132,0.06158
2831.96171,0.06110
2829.90210,0.06077
2827.84249,0.06051
2825.78288,0.06043
2823.72328,0.06047
2821.66367,0.06045
2819.60406,0.06035
2817.54445,0.06023
2815.48484,0.06007
2813.42523,0.05992
2811.36562,0.05980
2809.30602,0.05977
2807.24641,0.05982
2805.18680,0.05978
2803.12719,0.05964
2801.06758,0.05965
2799.00797,0.05973
2796.94836,0.05954
2794.88876,0.05918
2792.82915,0.05908
2790.76954,0.05927
2788.70993,0.05921
2786.65032,0.05893
2784.59071,0.05885
2782.53110,0.05874
2780.47150,0.05845
2778.41189,0.05835
2776.35228,0.05835
2774.29267,0.05823
2772.23306,0.05824
2770.17345,0.05829
2768.11385,0.05817
2766.05424,0.05785
2763.99463,0.05755
2761.93502,0.05746
2759.87541,0.05731
2757.81580,0.05710
2755.75619,0.05705
2753.69659,0.05696
2751.63698,0.05662
2749.57737,0.05634
2747.51776,0.05635
2745.45815,0.05636
2743.39854,0.05615
2741.33893,0.05589
2739.27933,0.05578
2737.21972,0.05574
2735.16011,0.05559
2733.10050,0.05545
2731.04089,0.05543
2728.98128,0.05542
2726.92167,0.05538
2724.86207,0.05534
2722.80246,0.05523
2720.74285,0.05505
2718.68324,0.05487
2716.62363,0.05468
2714.56402,0.05453
2712.50442,0.05434
2710.44481,0.05411
2708.38520,0.05400
2706.32559,0.05393
2704.26598,0.05373
2702.20637,0.05350
2700.14676,0.05340
2698.08716,0.05340
2696.02755,0.05344
2693.96794,0.05338
2691.90833,0.05324
2689.84872,0.05329
2687.78911,0.05350
2685.72950,0.05346
2683.66990,0.05317
2681.61029,0.05298
2679.55068,0.05289
2677.49107,0.05278
2675.43146,0.05257
2673.37185,0.05231
2671.31224,0.05215
2669.25264,0.05207
2667.19303,0.05216
2665.13342,0.05244
2663.07381,0.05266
2661.01420,0.05250
2658.95459,0.05213
2656.89499,0.05210
2654.83538,0.05233
2652.77577,0.05238
2650.71616,0.05229
2648.65655,0.05228
2646.59694,0.05202
2644.53733,0.05153
2642.47773,0.05144
2640.41812,0.05173
2638.35851,0.05173
2636.29890,0.05133
2634.23929,0.05093
2632.17968,0.05070
2630.12007,0.05051
2628.06047,0.05047
2626.00086,0.05066
2623.94125,0.05069
2621.88164,0.05039
2619.82203,0.05012
2617.76242,0.05003
2615.70281,0.05006
2613.64321,0.04992
2611.58360,0.04944
2609.52399,0.04914
2607.46438,0.04920
2605.40477,0.04929
2603.34516,0.04943
2601.28556,0.04941
2599.22595,0.04916
2597.16634,0.04897
2595.10673,0.04874
2593.04712,0.04826
2590.98751,0.04790
2588.92790,0.04810
2586.86830,0.04844
2584.80869,0.04836
2582.74908,0.04806
2580.68947,0.04775
2578.62986,0.04762
2576.57025,0.04784
2574.51064,0.04805
2572.45104,0.04779
2570.39143,0.04716
2568.33182,0.04669
2566.27221,0.04654
2564.21260,0.04637
2562.15299,0.04613
2560.09338,0.04605
2558.03378,0.04613
2555.97417,0.04627
2553.91456,0.04643
2551.85495,0.04642
2549.79534,0.04593
2547.73573,0.04529
2545.67613,0.04497
2543.61652,0.04485
2541.55691,0.04499
2539.49730,0.04547
2537.43769,0.04580
2535.37808,0.04559
2533.31847,0.04510
2531.25887,0.04468
2529.19926,0.04470
2527.13965,0.04508
2525.08004,0.04530
2523.02043,0.04529
2520.96082,0.04526
2518.90121,0.04507
2516.84161,0.04480
2514.78200,0.04500
2512.72239,0.04523
2510.66278,0.04488
2508.60317,0.04438
2506.54356,0.04434
2504.48395,0.04467
2502.42435,0.04494
2500.36474,0.04488
2498.30513,0.04454
2496.24552,0.04436
2494.18591,0.04438
2492.12630,0.04413
2490.06670,0.04376
2488.00709,0.04376
2485.94748,0.04416
2483.88787,0.04444
2481.82826,0.04426
2479.76865,0.04405
2477.70904,0.04392
2475.64944,0.04368
2473.58983,0.04351
2471.53022,0.04345
2469.47061,0.04337
2467.41100,0.04333
2465.35139,0.04343
2463.29178,0.04348
2461.23218,0.04341
2459.17257,0.04341
2457.11296,0.04347
2455.05335,0.04353
2452.99374,0.04357
2450.93413,0.04322
2448.87452,0.04260
2446.81492,0.04237
2444.75531,0.04260
2442.69570,0.04297
2440.63609,0.04321
2438.57648,0.04321
2436.51687,0.04315
2434.45727,0.04294
2432.39766,0.04263
2430.33805,0.04266
2428.27844,0.04284
2426.21883,0.04262
2424.15922,0.04225
2422.09961,0.04215
2420.04001,0.04211
2417.98040,0.04196
2415.92079,0.04200
2413.86118,0.04218
2411.80157,0.04228
2409.74196,0.04212
2407.68235,0.04167
2405.62275,0.04133
2403.56314,0.04120
2401.50353,0.04124
2399.44392,0.04171
2397.38431,0.04215
2395.32470,0.04194
2393.26509,0.04152
2391.20549,0.04136
2389.14588,0.04128
2387.08627,0.04117
2385.02666,0.04121
2382.96705,0.04120
2380.90744,0.04095
2378.84784,0.04075
2376.78823,0.04069
2374.72862,0.04073
2372.66901,0.04115
2370.60940,0.04156
2368.54979,0.04148
2366.49018,0.04141
2364.43058,0.04142
2362.37097,0.04098
2360.31136,0.04075
2358.25175,0.04106
2356.19214,0.04109
2354.13253,0.04079
2352.07292,0.04071
2350.01332,0.04071
2347.95371,0.04059
2345.89410,0.04089
2343.83449,0.04170
2341.77488,0.04204
2339.71527,0.04162
2337.65566,0.04081
2335.59606,0.04034
2333.53645,0.04057
2331.47684,0.04081
2329.41723,0.04070
2327.35762,0.04081
2325.29801,0.04107
2323.23841,0.04101
2321.17880,0.04056
2319.11919,0.04001
2317.05958,0.03997
2314.99997,0.04042
2312.94036,0.04039
2310.88075,0.03990
2308.82115,0.03976
2306.76154,0.03981
2304.70193,0.03967
2302.64232,0.03940
2300.58271,0.03901
2298.52310,0.03886
2296.46349,0.03905
2294.40389,0.03900
2292.34428,0.03844
2290.28467,0.03811
2288.22506,0.03856
2286.16545,0.03913
2284.10584,0.03911
2282.04623,0.03873
2279.98663,0.03856
2277.92702,0.03865
2275.86741,0.03850
2273.80780,0.03796
2271.74819,0.03733
2269.68858,0.03689
2267.62898,0.03678
2265.56937,0.03697
2263.50976,0.03717
2261.45015,0.03726
2259.39054,0.03714
2257.33093,0.03668
2255.27132,0.03636
2253.21172,0.03612
2251.15211,0.03553
2249.09250,0.03531
2247.03289,0.03572
2244.97328,0.03567
2242.91367,0.03515
2240.85406,0.03481
2238.79446,0.03462
2236.73485,0.03476
2234.67524,0.03486
2232.61563,0.03464
2230.55602,0.03500
2228.49641,0.03576
2226.43680,0.03574
2224.37720,0.03510
2222.31759,0.03440
2220.25798,0.03337
2218.19837,0.03228
2216.13876,0.03209
2214.07915,0.03284
2212.01955,0.03335
2209.95994,0.03317
2207.90033,0.03301
2205.84072,0.03342
2203.78111,0.03360
2201.72150,0.03231
2199.66189,0.03069
2197.60229,0.03048
2195.54268,0.03167
2193.48307,0.03351
2191.42346,0.03441
2189.36385,0.03393
2187.30424,0.03320
2185.24463,0.03183
2183.18503,0.02951
2181.12542,0.02843
2179.06581,0.03043
2177.00620,0.03330
2174.94659,0.03386
2172.88698,0.03245
2170.82738,0.03128
2168.76777,0.03141
2166.70816,0.03172
2164.64855,0.03090
2162.58894,0.02984
2160.52933,0.02898
2158.46972,0.02835
2156.41012,0.02910
2154.35051,0.03004
2152.29090,0.02969
2150.23129,0.02955
2148.17168,0.02991
2146.11207,0.02976
2144.05246,0.02976
2141.99286,0.03053
2139.93325,0.03120
2137.87364,0.03115
2135.81403,0.03086
2133.75442,0.03036
2131.69481,0.02974
2129.63520,0.02957
2127.57560,0.02972
2125.51599,0.02964
2123.45638,0.02963
2121.39677,0.03027
2119.33716,0.03103
2117.27755,0.03160
2115.21795,0.03225
2113.15834,0.03237
2111.09873,0.03177
2109.03912,0.03139
2106.97951,0.03137
2104.91990,0.03118
2102.86029,0.03109
2100.80069,0.03127
2098.74108,0.03115
2096.68147,0.03065
2094.62186,0.03045
2092.56225,0.03069
2090.50264,0.03100
2088.44303,0.03088
2086.38343,0.03011
2084.32382,0.02939
2082.26421,0.02966
2080.20460,0.03061
2078.14499,0.03096
2076.08538,0.03052
2074.02577,0.02993
2071.96617,0.02984
2069.90656,0.03070
2067.84695,0.03157
2065.78734,0.03136
2063.72773,0.03065
2061.66812,0.03000
2059.60852,0.02957
2057.54891,0.02953
2055.48930,0.02953
2053.42969,0.02960
2051.37008,0.02979
2049.31047,0.02938
2047.25086,0.02888
2045.19126,0.02899
2043.13165,0.02870
2041.07204,0.02800
2039.01243,0.02791
2036.95282,0.02821
2034.89321,0.02835
2032.83360,0.02807
2030.77400,0.02720
2028.71439,0.02622
2026.65478,0.02577
2024.59517,0.02574
2022.53556,0.02590
2020.47595,0.02611
2018.41634,0.02634
2016.35674,0.02679
2014.29713,0.02682
2012.23752,0.02613
2010.17791,0.02571
2008.11830,0.02608
2006.05869,0.02674
2003.99909,0.02684
2001.93948,0.02638
1999.87987,0.02626
1997.82026,0.02605
1995.76065,0.02534
1993.70104,0.02528
1991.64143,0.02607
1989.58183,0.02687
1987.52222,0.02679
1985.46261,0.02576
1983.40300,0.02546
1981.34339,0.02642
1979.28378,0.02675
1977.22417,0.02606
1975.16457,0.02531
1973.10496,0.02437
1971.04535,0.02372
1968.98574,0.02372
1966.92613,0.02390
1964.86652,0.02417
1962.80691,0.02430
1960.74731,0.02413
1958.68770,0.02367
1956.62809,0.02284
1954.56848,0.02236
1952.50887,0.02277
1950.44926,0.02352
1948.38966,0.02396
1946.33005,0.02396
1944.27044,0.02386
1942.21083,0.02375
1940.15122,0.02348
1938.09161,0.02345
1936.03200,0.02394
1933.97240,0.02423
1931.91279,0.02404
1929.85318,0.02402
1927.79357,0.02438
1925.73396,0.02471
1923.67435,0.02475
1921.61474,0.02462
1919.55514,0.02441
1917.49553,0.02423
1915.43592,0.02408
1913.37631,0.02389
1911.31670,0.02367
1909.25709,0.02351
1907.19748,0.02360
1905.13788,0.02366
1903.07827,0.02345
1901.01866,0.02318
1898.95905,0.02293
1896.89944,0.02271
1894.83983,0.02275
1892.78023,0.02304
1890.72062,0.02334
1888.66101,0.02346
1886.60140,0.02335
1884.54179,0.02309
1882.48218,0.02275
1880.42257,0.02238
1878.36297,0.02229
1876.30336,0.02263
1874.24375,0.02293
1872.18414,0.02280
1870.12453,0.02241
1868.06492,0.02207
1866.00531,0.02178
1863.94571,0.02171
1861.88610,0.02179
1859.82649,0.02168
1857.76688,0.02168
1855.70727,0.02199
1853.64766,0.02198
1851.58805,0.02156
1849.52845,0.02126
1847.46884,0.02110
1845.40923,0.02095
1843.34962,0.02089
1841.29001,0.02086
1839.23040,0.02078
1837.17080,0.02082
1835.11119,0.02096
1833.05158,0.02098
1830.99197,0.02091
1828.93236,0.02082
1826.87275,0.02061
1824.81314,0.02021
1822.75354,0.01977
1820.69393,0.01948
1818.63432,0.01936
1816.57471,0.01941
1814.51510,0.01960
1812.45549,0.01976
1810.39588,0.01964
1808.33628,0.01925
1806.27667,0.01881
1804.21706,0.01850
1802.15745,0.01847
1800.09784,0.01849
1798.03823,0.01819
1795.97862,0.01788
1793.91902,0.01782
1791.85941,0.01790
1789.79980,0.01795
1787.74019,0.01787
1785.68058,0.01762
1783.62097,0.01735
1781.56137,0.01722
1779.50176,0.01715
1777.44215,0.01701
1775.38254,0.01693
1773.32293,0.01683
1771.26332,0.01642
1769.20371,0.01606
1767.14411,0.01592
1765.08450,0.01569
1763.02489,0.01549
1760.96528,0.01547
1758.90567,0.01540
1756.84606,0.01530
1754.78645,0.01526
1752.72685,0.01515
1750.66724,0.01486
1748.60763,0.01439
1746.54802,0.01410
1744.48841,0.01399
1742.42880,0.01389
1740.36919,0.01377
1738.30959,0.01355
1736.24998,0.01314
1734.19037,0.01281
1732.13076,0.01288
1730.07115,0.01294
1728.01154,0.01283
1725.95194,0.01272
1723.89233,0.01269
1721.83272,0.01267
1719.77311,0.01277
1717.71350,0.01324
1715.65389,0.01386
1713.59428,0.01456
1711.53468,0.01578
1709.47507,0.01786
1707.41546,0.02118
1705.35585,0.02613
1703.29624,0.03144
1701.23663,0.03633
1699.17702,0.04018
1697.11742,0.04143
1695.05781,0.04120
1692.99820,0.04102
1690.93859,0.04122
1688.87898,0.04166
1686.81937,0.04225
1684.75976,0.04356
1682.70016,0.04560
1680.64055,0.04743
1678.58094,0.04918
1676.52133,0.05126
1674.46172,0.05374
1672.40211,0.05596
1670.34251,0.05830
1668.28290,0.06112
1666.22329,0.06357
1664.16368,0.06596
1662.10407,0.06901
1660.04446,0.07228
1657.98485,0.07503
1655.92525,0.07730
1653.86564,0.08040
1651.80603,0.08445
1649.74642,0.08701
1647.68681,0.08964
1645.62720,0.09332
1643.56759,0.09662
1641.50799,0.09961
1639.44838,0.10280
1637.38877,0.10652
1635.32916,0.11164
1633.26955,0.11671
1631.20994,0.12065
1629.15033,0.12463
1627.09073,0.12894
1625.03112,0.13290
1622.97151,0.13628
1620.91190,0.13846
1618.85229,0.13912
1616.79268,0.13873
1614.73308,0.13743
1612.67347,0.13517
1610.61386,0.13194
1608.55425,0.12775
1606.49464,0.12276
1604.43503,0.11737
1602.37542,0.11194
1600.31582,0.10665
1598.25621,0.10175
1596.19660,0.09734
1594.13699,0.09310
1592.07738,0.08890
1590.01777,0.08483
1587.95816,0.08104
1585.89856,0.07774
1583.83895,0.07502
1581.77934,0.07275
1579.71973,0.07096
1577.66012,0.06975
1575.60051,0.06912
1573.54090,0.06887
1571.48130,0.06894
1569.42169,0.06972
1567.36208,0.07117
1565.30247,0.07282
1563.24286,0.07442
1561.18325,0.07602
1559.12365,0.07860
1557.06404,0.08151
1555.00443,0.08355
1552.94482,0.08551
1550.88521,0.08755
1548.82560,0.08961
1546.76599,0.09160
1544.70639,0.09381
1542.64678,0.09650
1540.58717,0.09991
1538.52756,0.10338
1536.46795,0.10563
1534.40834,0.10782
1532.34873,0.11057
1530.28913,0.11305
1528.22952,0.11530
1526.16991,0.11769
1524.11030,0.12002
1522.05069,0.12269
1519.99108,0.12579
1517.93147,0.12887
1515.87187,0.13197
1513.81226,0.13432
1511.75265,0.13542
1509.69304,0.13547
1507.63343,0.13465
1505.57382,0.13332
1503.51422,0.13176
1501.45461,0.12983
1499.39500,0.12746
1497.33539,0.12454
1495.27578,0.12117
1493.21617,0.11778
1491.15656,0.11410
1489.09696,0.10997
1487.03735,0.10613
1484.97774,0.10272
1482.91813,0.09947
1480.85852,0.09632
1478.79891,0.09345
1476.73930,0.09090
1474.67970,0.08862
1472.62009,0.08637
1470.56048,0.08433
1468.50087,0.08277
1466.44126,0.08136
1464.38165,0.08012
1462.32205,0.07936
1460.26244,0.07892
1458.20283,0.07906
1456.14322,0.08063
1454.08361,0.08291
1452.02400,0.08519
1449.96439,0.08753
1447.90479,0.08987
1445.84518,0.09182
1443.78557,0.09295
1441.72596,0.09353
1439.66635,0.09373
1437.60674,0.09333
1435.54713,0.09198
1433.48753,0.08989
1431.42792,0.08733
1429.36831,0.08466
1427.30870,0.08237
1425.24909,0.08055
1423.18948,0.07922
1421.12987,0.07827
1419.07027,0.07766
1417.01066,0.07745
1414.95105,0.07743
1412.89144,0.07750
1410.83183,0.07765
1408.77222,0.07780
1406.71262,0.07785
1404.65301,0.07763
1402.59340,0.07713
1400.53379,0.07651
1398.47418,0.07586
1396.41457,0.07526
1394.35496,0.07480
1392.29536,0.07445
1390.23575,0.07403
1388.17614,0.07356
1386.11653,0.07319
1384.05692,0.07290
1381.99731,0.07254
1379.93770,0.07214
1377.87810,0.07174
1375.81849,0.07139
1373.75888,0.07129
1371.69927,0.07145
1369.63966,0.07166
1367.58005,0.07169
1365.52044,0.07134
1363.46084,0.07049
1361.40123,0.06925
1359.34162,0.06796
1357.28201,0.06686
1355.22240,0.06599
1353.16279,0.06524
1351.10319,0.06460
1349.04358,0.06417
1346.98397,0.06391
1344.92436,0.06372
1342.86475,0.06361
1340.80514,0.06357
1338.74553,0.06356
1336.68593,0.06360
1334.62632,0.06364
1332.56671,0.06348
1330.50710,0.06310
1328.44749,0.06265
1326.38788,0.06219
1324.32827,0.06163
1322.26867,0.06101
1320.20906,0.06049
1318.14945,0.06013
1316.08984,0.05983
1314.03023,0.05948
1311.97062,0.05911
1309.91101,0.05880
1307.85141,0.05854
1305.79180,0.05825
1303.73219,0.05794
1301.67258,0.05766
1299.61297,0.05740
1297.55336,0.05708
1295.49376,0.05663
1293.43415,0.05614
1291.37454,0.05580
1289.31493,0.05559
1287.25532,0.05544
1285.19571,0.05539
1283.13610,0.05547
1281.07650,0.05565
1279.01689,0.05594
1276.95728,0.05657
1274.89767,0.05765
1272.83806,0.05892
1270.77845,0.06031
1268.71884,0.06183
1266.65924,0.06329
1264.59963,0.06443
1262.54002,0.06510
1260.48041,0.06543
1258.42080,0.06557
1256.36119,0.06555
1254.30158,0.06557
1252.24198,0.06574
1250.18237,0.06596
1248.12276,0.06623
1246.06315,0.06664
1244.00354,0.06729
1241.94393,0.06810
1239.88433,0.06910
1237.82472,0.07044
1235.76511,0.07200
1233.70550,0.07353
1231.64589,0.07484
1229.58628,0.07583
1227.52667,0.07644
1225.46707,0.07664
1223.40746,0.07651
1221.34785,0.07611
1219.28824,0.07547
1217.22863,0.07467
1215.16902,0.07371
1213.10941,0.07252
1211.04981,0.07114
1208.99020,0.06958
1206.93059,0.06778
1204.87098,0.06593
1202.81137,0.06414
1200.75176,0.06237
1198.69215,0.06077
1196.63255,0.05947
1194.57294,0.05828
1192.51333,0.05703
1190.45372,0.05597
1188.39411,0.05523
1186.33450,0.05458
1184.27490,0.05394
1182.21529,0.05352
1180.15568,0.05340
1178.09607,0.05350
1176.03646,0.05390
1173.97685,0.05465
1171.91724,0.05550
1169.85764,0.05607
1167.79803,0.05632
1165.73842,0.05644
1163.67881,0.05645
1161.61920,0.05631
1159.55959,0.05616
1157.49998,0.05593
1155.44038,0.05538
1153.38077,0.05462
1151.32116,0.05391
1149.26155,0.05319
1147.20194,0.05229
1145.14233,0.05125
1143.08272,0.05023
1141.02312,0.04927
1138.96351,0.04844
1136.90390,0.04782
1134.84429,0.04729
1132.78468,0.04670
1130.72507,0.04617
1128.66547,0.04587
1126.60586,0.04567
1124.54625,0.04532
1122.48664,0.04485
1120.42703,0.04447
1118.36742,0.04415
1116.30781,0.04379
1114.24821,0.04344
1112.18860,0.04314
1110.12899,0.04292
1108.06938,0.04281
1106.00977,0.04277
1103.95016,0.04272
1101.89055,0.04257
1099.83095,0.04233
1097.77134,0.04199
1095.71173,0.04162
1093.65212,0.04133
1091.59251,0.04124
1089.53290,0.04137
1087.47329,0.04169
1085.41369,0.04220
1083.35408,0.04295
1081.29447,0.04381
1079.23486,0.04462
1077.17525,0.04549
1075.11564,0.04646
1073.05604,0.04730
1070.99643,0.04788
1068.93682,0.04832
1066.87721,0.04867
1064.81760,0.04879
1062.75799,0.04877
1060.69838,0.04875
1058.63878,0.04862
1056.57917,0.04832
1054.51956,0.04793
1052.45995,0.04750
1050.40034,0.04705
1048.34073,0.04662
1046.28112,0.04629
1044.22152,0.04610
1042.16191,0.04597
1040.10230,0.04573
1038.04269,0.04527
1035.98308,0.04469
1033.92347,0.04411
1031.86386,0.04357
1029.80426,0.04299
1027.74465,0.04236
1025.68504,0.04170
1023.62543,0.04111
1021.56582,0.04077
1019.50621,0.04069
1017.44661,0.04073
1015.38700,0.04079
1013.32739,0.04078
1011.26778,0.04068
1009.20817,0.04056
1007.14856,0.04055
1005.08895,0.04074
1003.02935,0.04109
1000.96974,0.04147
998.91013,0.04177
996.85052,0.04193
994.79091,0.04189
992.73130,0.04160
990.67169,0.04101
988.61209,0.04015
986.55248,0.03925
984.49287,0.03862
982.43326,0.03852
980.37365,0.03897
978.31404,0.03957
976.25443,0.03996
974.19483,0.04003
972.13522,0.03981
970.07561,0.03937
968.01600,0.03874
965.95639,0.03800
963.89678,0.03733
961.83718,0.03681
959.77757,0.03631
957.71796,0.03577
955.65835,0.03534
953.59874,0.03510
951.53913,0.03486
949.47952,0.03453
947.41992,0.03425
945.36031,0.03406
943.30070,0.03390
941.24109,0.03364
939.18148,0.03329
937.12187,0.03310
935.06226,0.03308
933.00266,0.03312
930.94305,0.03320
928.88344,0.03318
926.82383,0.03304
924.76422,0.03283
922.70461,0.03255
920.64500,0.03218
918.58540,0.03167
916.52579,0.03115
914.46618,0.03080
912.40657,0.03048
910.34696,0.03009
908.28735,0.02991
906.22775,0.02988
904.16814,0.02973
902.10853,0.02952
900.04892,0.02931
897.98931,0.02907
895.92970,0.02890
893.87009,0.02883
891.81049,0.02872
889.75088,0.02856
887.69127,0.02840
885.63166,0.02833
883.57205,0.02830
881.51244,0.02817
879.45283,0.02788
877.39323,0.02757
875.33362,0.02738
873.27401,0.02725
871.21440,0.02705
869.15479,0.02678
867.09518,0.02651
865.03557,0.02635
862.97597,0.02637
860.91636,0.02643
858.85675,0.02648
856.79714,0.02666
854.73753,0.02694
852.67792,0.02711
850.61832,0.02704
848.55871,0.02681
846.49910,0.02659
844.43949,0.02648
842.37988,0.02652
840.32027,0.02661
838.26066,0.02659
836.20106,0.02652
834.14145,0.02655
832.08184,0.02671
830.02223,0.02689
827.96262,0.02695
825.90301,0.02690
823.84340,0.02684
821.78380,0.02678
819.72419,0.02666
817.66458,0.02651
815.60497,0.02635
813.54536,0.02611
811.48575,0.02593
809.42614,0.02588
807.36654,0.02574
805.30693,0.02551
803.24732,0.02538
801.18771,0.02531
799.12810,0.02523
797.06849,0.02524
795.00889,0.02522
792.94928,0.02516
790.88967,0.02516
788.83006,0.02527
786.77045,0.02539
784.71084,0.02549
782.65123,0.02556
780.59163,0.02566
778.53202,0.02585
776.47241,0.02607
774.41280,0.02636
772.35319,0.02673
770.29358,0.02707
768.23397,0.02734
766.17437,0.02753
764.11476,0.02759
762.05515,0.02767
759.99554,0.02780
757.93593,0.02787
755.87632,0.02793
753.81672,0.02804
751.75711,0.02819
749.69750,0.02841
747.63789,0.02876
745.57828,0.02929
743.51867,0.02994
741.45906,0.03065
739.39946,0.03142
737.33985,0.03207
735.28024,0.03252
733.22063,0.03307
731.16102,0.03377
729.10141,0.03449
727.04180,0.03519
724.98220,0.03581
722.92259,0.03639
720.86298,0.03704
718.80337,0.03758
716.74376,0.03792
714.68415,0.03826
712.62454,0.03880
710.56494,0.03940
708.50533,0.03993
706.44572,0.04040
704.38611,0.04084
702.32650,0.04128
700.26689,0.04180
698.20729,0.04229
696.14768,0.04266
694.08807,0.04291
692.02846,0.04299
689.96885,0.04312
687.90924,0.04331
685.84963,0.04333
683.79003,0.04319
681.73042,0.04310
679.67081,0.04318
677.61120,0.04324
675.55159,0.04308
673.49198,0.04296
671.43237,0.04294
669.37277,0.04278
667.31316,0.04254
665.25355,0.04249
663.19394,0.04252
661.13433,0.04263
659.07472,0.04278
657.01511,0.04292
654.95551,0.04313
652.89590,0.04341
650.83629,0.04355
648.77668,0.04361
646.71707,0.04381
644.65746,0.04414
642.59786,0.04438
640.53825,0.04443
638.47864,0.04453
636.41903,0.04472
634.35942,0.04486
632.29981,0.04483
630.24020,0.04471
628.18060,0.04464
626.12099,0.04460
624.06138,0.04460
622.00177,0.04457
619.94216,0.04451
617.88255,0.04462
615.82294,0.04490
613.76334,0.04516
611.70373,0.04525
609.64412,0.04502
607.58451,0.04457
605.52490,0.04403
603.46529,0.04361
601.40568,0.04330
599.34608,0.04282
597.28647,0.04206
595.22686,0.04118
593.16725,0.04057
591.10764,0.04025
589.04803,0.03985
586.98843,0.03931
584.92882,0.03890
582.86921,0.03879
580.80960,0.03885
578.74999,0.03885
576.69038,0.03859
574.63077,0.03831
572.57117,0.03824
570.51156,0.03824
568.45195,0.03812
566.39234,0.03824
564.33273,0.03884
562.27312,0.03972
560.21351,0.04081
558.15391,0.04210
556.09430,0.04350
554.03469,0.04463
551.97508,0.04524
549.91547,0.04551
547.85586,0.04545
545.79625,0.04513
543.73665,0.04476
541.67704,0.04442
539.61743,0.04395
537.55782,0.04323
535.49821,0.04237
533.43860,0.04174
531.37900,0.04132
529.31939,0.04096
527.25978,0.04066
525.20017,0.04021
523.14056,0.03963
521.08095,0.03927
519.02134,0.03894
516.96174,0.03849
514.90213,0.03816
512.84252,0.03783
510.78291,0.03741
508.72330,0.03694
506.66369,0.03635
504.60408,0.03584
502.54448,0.03584
500.48487,0.03607
498.42526,0.03598
496.36565,0.03564
494.30604,0.03515
492.24643,0.03467
490.18682,0.03451
488.12722,0.03458
486.06761,0.03452
484.00800,0.03417
481.94839,0.03376
479.88878,0.03353
477.82917,0.03308
475.76957,0.03231
473.70996,0.03163
471.65035,0.03136
469.59074,0.03138
467.53113,0.03135
465.47152,0.03124
463.41191,0.03103
461.35231,0.03042
459.29270,0.02957
457.23309,0.02916
455.17348,0.02934
453.11387,0.02961
451.05426,0.02946
448.99465,0.02896
446.93505,0.02867
444.87544,0.02843
442.81583,0.02808
440.75622,0.02792
438.69661,0.02786
436.63700,0.02805
434.57739,0.02853
432.51779,0.02895
430.45818,0.02945
428.39857,0.02993
426.33896,0.02981
424.27935,0.02928
422.21974,0.02921
420.16014,0.02948
418.10053,0.02910
416.04092,0.02825
413.98131,0.02767
411.92170,0.02743
409.86209,0.02708
407.80248,0.02650
405.74288,0.02580
403.68327,0.02493
401.62366,0.02447
399.56405,0.02470
