3997.65486	0.03980
3995.59527	0.04011
3993.53569	0.04010
3991.47610	0.03983
3989.41652	0.03968
3987.35693	0.03971
3985.29735	0.03978
3983.23776	0.03969
3981.17817	0.03966
3979.11859	0.04008
3977.05900	0.04064
3974.99942	0.04064
3972.93983	0.04012
3970.88025	0.03958
3968.82066	0.03923
3966.76108	0.03881
3964.70149	0.03827
3962.64191	0.03805
3960.58232	0.03814
3958.52274	0.03833
3956.46315	0.03866
3954.40357	0.03911
3952.34398	0.03940
3950.28440	0.03922
3948.22481	0.03863
3946.16523	0.03828
3944.10564	0.03871
3942.04606	0.03909
3939.98647	0.03878
3937.92689	0.03868
3935.86730	0.03908
3933.80772	0.03907
3931.74813	0.03860
3929.68855	0.03820
3927.62896	0.03792
3925.56937	0.03782
3923.50979	0.03809
3921.45020	0.03842
3919.39062	0.03846
3917.33103	0.03841
3915.27145	0.03851
3913.21186	0.03864
3911.15228	0.03863
3909.09269	0.03856
3907.03311	0.03848
3904.97352	0.03843
3902.91394	0.03887
3900.85435	0.03977
3898.79477	0.03995
3896.73518	0.03893
3894.67560	0.03781
3892.61601	0.03741
3890.55643	0.03759
3888.49684	0.03805
3886.43726	0.03860
3884.37767	0.03865
3882.31809	0.03795
3880.25850	0.03718
3878.19892	0.03687
3876.13933	0.03690
3874.07974	0.03695
3872.02016	0.03688
3869.96057	0.03666
3867.90099	0.03639
3865.84140	0.03654
3863.78182	0.03696
3861.72223	0.03695
3859.66265	0.03657
3857.60306	0.03643
3855.54348	0.03675
3853.48389	0.03693
3851.42431	0.03641
3849.36472	0.03616
3847.30514	0.03650
3845.24555	0.03675
3843.18597	0.03670
3841.12638	0.03664
3839.06680	0.03646
3837.00721	0.03626
3834.94763	0.03636
3832.88804	0.03665
3830.82846	0.03678
3828.76887	0.03659
3826.70929	0.03630
3824.64970	0.03631
3822.59012	0.03677
3820.53053	0.03718
3818.47094	0.03686
3816.41136	0.03600
3814.35177	0.03542
3812.29219	0.03552
3810.23260	0.03600
3808.17302	0.03626
3806.11343	0.03564
3804.05385	0.03453
3801.99426	0.03391
3799.93468	0.03413
3797.87509	0.03503
3795.81551	0.03616
3793.75592	0.03673
3791.69634	0.03653
3789.63675	0.03598
3787.57717	0.03546
3785.51758	0.03520
3783.45800	0.03501
3781.39841	0.03483
3779.33883	0.03476
3777.27924	0.03456
3775.21966	0.03447
3773.16007	0.03497
3771.10049	0.03560
3769.04090	0.03569
3766.98132	0.03536
3764.92173	0.03488
3762.86214	0.03427
3760.80256	0.03376
3758.74297	0.03369
3756.68339	0.03402
3754.62380	0.03434
3752.56422	0.03439
3750.50463	0.03428
3748.44505	0.03415
3746.38546	0.03401
3744.32588	0.03383
3742.26629	0.03366
3740.20671	0.03357
3738.14712	0.03354
3736.08754	0.03343
3734.02795	0.03343
3731.96837	0.03367
3729.90878	0.03346
3727.84920	0.03251
3725.78961	0.03167
3723.73003	0.03173
3721.67044	0.03260
3719.61086	0.03330
3717.55127	0.03302
3715.49169	0.03221
3713.43210	0.03203
3711.37251	0.03268
3709.31293	0.03326
3707.25334	0.03308
3705.19376	0.03287
3703.13417	0.03339
3701.07459	0.03417
3699.01500	0.03420
3696.95542	0.03335
3694.89583	0.03237
3692.83625	0.03205
3690.77666	0.03243
3688.71708	0.03318
3686.65749	0.03373
3684.59791	0.03368
3682.53832	0.03325
3680.47874	0.03302
3678.41915	0.03344
3676.35957	0.03434
3674.29998	0.03496
3672.24040	0.03500
3670.18081	0.03487
3668.12123	0.03465
3666.06164	0.03439
3664.00206	0.03454
3661.94247	0.03497
3659.88289	0.03522
3657.82330	0.03548
3655.76371	0.03600
3653.70413	0.03664
3651.64454	0.03721
3649.58496	0.03718
3647.52537	0.03644
3645.46579	0.03606
3643.40620	0.03647
3641.34662	0.03712
3639.28703	0.03763
3637.22745	0.03805
3635.16786	0.03833
3633.10828	0.03856
3631.04869	0.03903
3628.98911	0.03974
3626.92952	0.04031
3624.86994	0.04062
3622.81035	0.04088
3620.75077	0.04104
3618.69118	0.04075
3616.63160	0.04027
3614.57201	0.04031
3612.51243	0.04071
3610.45284	0.04088
3608.39326	0.04118
3606.33367	0.04217
3604.27408	0.04338
3602.21450	0.04433
3600.15491	0.04503
3598.09533	0.04549
3596.03574	0.04568
3593.97616	0.04593
3591.91657	0.04658
3589.85699	0.04744
3587.79740	0.04789
3585.73782	0.04798
3583.67823	0.04832
3581.61865	0.04909
3579.55906	0.04971
3577.49948	0.04990
3575.43989	0.05021
3573.38031	0.05082
3571.32072	0.05132
3569.26114	0.05188
3567.20155	0.05282
3565.14197	0.05363
3563.08238	0.05373
3561.02280	0.05336
3558.96321	0.05349
3556.90363	0.05447
3554.84404	0.05551
3552.78446	0.05611
3550.72487	0.05659
3548.66528	0.05718
3546.60570	0.05740
3544.54611	0.05738
3542.48653	0.05804
3540.42694	0.05918
3538.36736	0.06016
3536.30777	0.06110
3534.24819	0.06214
3532.18860	0.06280
3530.12902	0.06282
3528.06943	0.06264
3526.00985	0.06273
3523.95026	0.06334
3521.89068	0.06432
3519.83109	0.06501
3517.77151	0.06523
3515.71192	0.06549
3513.65234	0.06588
3511.59275	0.06609
3509.53317	0.06636
3507.47358	0.06735
3505.41400	0.06864
3503.35441	0.06941
3501.29483	0.07007
3499.23524	0.07065
3497.17565	0.07077
3495.11607	0.07078
3493.05648	0.07109
3490.99690	0.07181
3488.93731	0.07282
3486.87773	0.07387
3484.81814	0.07495
3482.75856	0.07598
3480.69897	0.07675
3478.63939	0.07712
3476.57980	0.07726
3474.52022	0.07778
3472.46063	0.07850
3470.40105	0.07886
3468.34146	0.07926
3466.28188	0.08005
3464.22229	0.08090
3462.16271	0.08175
3460.10312	0.08258
3458.04354	0.08322
3455.98395	0.08389
3453.92437	0.08480
3451.86478	0.08569
3449.80520	0.08649
3447.74561	0.08739
3445.68603	0.08839
3443.62644	0.08914
3441.56685	0.08955
3439.50727	0.08990
3437.44768	0.09028
3435.38810	0.09088
3433.32851	0.09189
3431.26893	0.09330
3429.20934	0.09484
3427.14976	0.09601
3425.09017	0.09672
3423.03059	0.09767
3420.97100	0.09909
3418.91142	0.10025
3416.85183	0.10089
3414.79225	0.10152
3412.73266	0.10260
3410.67308	0.10372
3408.61349	0.10446
3406.55391	0.10539
3404.49432	0.10671
3402.43474	0.10789
3400.37515	0.10911
3398.31557	0.11039
3396.25598	0.11112
3394.19640	0.11130
3392.13681	0.11169
3390.07723	0.11249
3388.01764	0.11329
3385.95805	0.11413
3383.89847	0.11524
3381.83888	0.11637
3379.77930	0.11741
3377.71971	0.11880
3375.66013	0.12042
3373.60054	0.12156
3371.54096	0.12213
3369.48137	0.12292
3367.42179	0.12457
3365.36220	0.12674
3363.30262	0.12843
3361.24303	0.12956
3359.18345	0.13130
3357.12386	0.13374
3355.06428	0.13588
3353.00469	0.13770
3350.94511	0.13980
3348.88552	0.14195
3346.82594	0.14366
3344.76635	0.14531
3342.70677	0.14753
3340.64718	0.14985
3338.58760	0.15175
3336.52801	0.15384
3334.46842	0.15615
3332.40884	0.15805
3330.34925	0.15962
3328.28967	0.16152
3326.23008	0.16396
3324.17050	0.16627
3322.11091	0.16797
3320.05133	0.16989
3317.99174	0.17239
3315.93216	0.17481
3313.87257	0.17692
3311.81299	0.17883
3309.75340	0.18084
3307.69382	0.18335
3305.63423	0.18618
3303.57465	0.18887
3301.51506	0.19105
3299.45548	0.19296
3297.39589	0.19506
3295.33631	0.19704
3293.27672	0.19858
3291.21714	0.20019
3289.15755	0.20201
3287.09797	0.20321
3285.03838	0.20335
3282.97880	0.20323
3280.91921	0.20333
3278.85962	0.20296
3276.80004	0.20157
3274.74045	0.19968
3272.68087	0.19791
3270.62128	0.19605
3268.56170	0.19384
3266.50211	0.19136
3264.44253	0.18832
3262.38294	0.18449
3260.32336	0.18070
3258.26377	0.17778
3256.20419	0.17547
3254.14460	0.17303
3252.08502	0.17022
3250.02543	0.16731
3247.96585	0.16459
3245.90626	0.16224
3243.84668	0.16000
3241.78709	0.15767
3239.72751	0.15546
3237.66792	0.15370
3235.60834	0.15247
3233.54875	0.15132
3231.48917	0.14965
3229.42958	0.14773
3227.36999	0.14622
3225.31041	0.14480
3223.25082	0.14285
3221.19124	0.14077
3219.13165	0.13905
3217.07207	0.13761
3215.01248	0.13633
3212.95290	0.13500
3210.89331	0.13349
3208.83373	0.13231
3206.77414	0.13175
3204.71456	0.13106
3202.65497	0.12965
3200.59539	0.12796
3198.53580	0.12687
3196.47622	0.12627
3194.41663	0.12509
3192.35705	0.12324
3190.29746	0.12162
3188.23788	0.12031
3186.17829	0.11850
3184.11871	0.11614
3182.05912	0.11409
3179.99954	0.11290
3177.93995	0.11201
3175.88037	0.11089
3173.82078	0.10968
3171.76119	0.10832
3169.70161	0.10669
3167.64202	0.10497
3165.58244	0.10334
3163.52285	0.10199
3161.46327	0.10102
3159.40368	0.09997
3157.34410	0.09843
3155.28451	0.09693
3153.22493	0.09599
3151.16534	0.09521
3149.10576	0.09423
3147.04617	0.09332
3144.98659	0.09249
3142.92700	0.09168
3140.86742	0.09120
3138.80783	0.09087
3136.74825	0.09004
3134.68866	0.08880
3132.62908	0.08767
3130.56949	0.08688
3128.50991	0.08643
3126.45032	0.08624
3124.39074	0.08607
3122.33115	0.08580
3120.27156	0.08560
3118.21198	0.08560
3116.15239	0.08575
3114.09281	0.08575
3112.03322	0.08553
3109.97364	0.08557
3107.91405	0.08601
3105.85447	0.08612
3103.79488	0.08576
3101.73530	0.08595
3099.67571	0.08673
3097.61613	0.08702
3095.55654	0.08681
3093.49696	0.08684
3091.43737	0.08708
3089.37779	0.08734
3087.31820	0.08782
3085.25862	0.08821
3083.19903	0.08827
3081.13945	0.08849
3079.07986	0.08864
3077.02028	0.08832
3074.96069	0.08811
3072.90111	0.08827
3070.84152	0.08832
3068.78194	0.08804
3066.72235	0.08770
3064.66276	0.08730
3062.60318	0.08656
3060.54359	0.08547
3058.48401	0.08451
3056.42442	0.08408
3054.36484	0.08379
3052.30525	0.08311
3050.24567	0.08213
3048.18608	0.08139
3046.12650	0.08095
3044.06691	0.08021
3042.00733	0.07895
3039.94774	0.07755
3037.88816	0.07636
3035.82857	0.07552
3033.76899	0.07477
3031.70940	0.07401
3029.64982	0.07346
3027.59023	0.07268
3025.53065	0.07150
3023.47106	0.07050
3021.41148	0.06994
3019.35189	0.06958
3017.29231	0.06915
3015.23272	0.06871
3013.17313	0.06835
3011.11355	0.06798
3009.05396	0.06779
3006.99438	0.06794
3004.93479	0.06805
3002.87521	0.06792
3000.81562	0.06792
2998.75604	0.06832
2996.69645	0.06908
2994.63687	0.07005
2992.57728	0.07089
2990.51770	0.07147
2988.45811	0.07214
2986.39853	0.07291
2984.33894	0.07356
2982.27936	0.07430
2980.21977	0.07531
2978.16019	0.07613
2976.10060	0.07654
2974.04102	0.07697
2971.98143	0.07760
2969.92185	0.07833
2967.86226	0.07885
2965.80268	0.07890
2963.74309	0.07883
2961.68351	0.07909
2959.62392	0.07940
2957.56433	0.07976
2955.50475	0.08043
2953.44516	0.08087
2951.38558	0.08083
2949.32599	0.08094
2947.26641	0.08167
2945.20682	0.08278
2943.14724	0.08403
2941.08765	0.08550
2939.02807	0.08752
2936.96848	0.09008
2934.90890	0.09264
2932.84931	0.09497
2930.78973	0.09705
2928.73014	0.09887
2926.67056	0.10048
2924.61097	0.10168
2922.55139	0.10234
2920.49180	0.10259
2918.43222	0.10209
2916.37263	0.10006
2914.31305	0.09625
2912.25346	0.09185
2910.19388	0.08800
2908.13429	0.08473
2906.07471	0.08193
2904.01512	0.07953
2901.95553	0.07771
2899.89595	0.07661
2897.83636	0.07572
2895.77678	0.07458
2893.71719	0.07333
2891.65761	0.07221
2889.59802	0.07114
2887.53844	0.07021
2885.47885	0.06972
2883.41927	0.06951
2881.35968	0.06930
2879.30010	0.06920
2877.24051	0.06927
2875.18093	0.06939
2873.12134	0.06939
2871.06176	0.06920
2869.00217	0.06864
2866.94259	0.06791
2864.88300	0.06759
2862.82342	0.06782
2860.76383	0.06850
2858.70425	0.06977
2856.64466	0.07164
2854.58508	0.07379
2852.52549	0.07586
2850.46590	0.07691
2848.40632	0.07539
2846.34673	0.07127
2844.28715	0.06672
2842.22756	0.06326
2840.16798	0.06059
2838.10839	0.05848
2836.04881	0.05702
2833.98922	0.05590
2831.92964	0.05497
2829.87005	0.05437
2827.81047	0.05396
2825.75088	0.05349
2823.69130	0.05300
2821.63171	0.05259
2819.57213	0.05221
2817.51254	0.05186
2815.45296	0.05158
2813.39337	0.05135
2811.33379	0.05107
2809.27420	0.05069
2807.21462	0.05022
2805.15503	0.04980
2803.09545	0.04958
2801.03586	0.04949
2798.97628	0.04934
2796.91669	0.04912
2794.85710	0.04883
2792.79752	0.04837
2790.73793	0.04788
2788.67835	0.04769
2786.61876	0.04755
2784.55918	0.04722
2782.49959	0.04700
2780.44001	0.04694
2778.38042	0.04673
2776.32084	0.04662
2774.26125	0.04672
2772.20167	0.04659
2770.14208	0.04616
2768.08250	0.04561
2766.02291	0.04503
2763.96333	0.04483
2761.90374	0.04512
2759.84416	0.04530
2757.78457	0.04502
2755.72499	0.04450
2753.66540	0.04402
2751.60582	0.04373
2749.54623	0.04360
2747.48665	0.04347
2745.42706	0.04329
2743.36747	0.04311
2741.30789	0.04304
2739.24830	0.04302
2737.18872	0.04286
2735.12913	0.04272
2733.06955	0.04275
2731.00996	0.04264
2728.95038	0.04234
2726.89079	0.04214
2724.83121	0.04191
2722.77162	0.04147
2720.71204	0.04103
2718.65245	0.04081
2716.59287	0.04083
2714.53328	0.04076
2712.47370	0.04046
2710.41411	0.04018
2708.35453	0.03990
2706.29494	0.03959
2704.23536	0.03934
2702.17577	0.03913
2700.11619	0.03898
2698.05660	0.03909
2695.99702	0.03928
2693.93743	0.03902
2691.87785	0.03854
2689.81826	0.03843
2687.75867	0.03844
2685.69909	0.03823
2683.63950	0.03805
2681.57992	0.03798
2679.52033	0.03787
2677.46075	0.03763
2675.40116	0.03737
2673.34158	0.03732
2671.28199	0.03749
2669.22241	0.03752
2667.16282	0.03739
2665.10324	0.03739
2663.04365	0.03744
2660.98407	0.03751
2658.92448	0.03765
2656.86490	0.03754
2654.80531	0.03723
2652.74573	0.03729
2650.68614	0.03764
2648.62656	0.03759
2646.56697	0.03704
2644.50739	0.03659
2642.44780	0.03638
2640.38822	0.03634
2638.32863	0.03648
2636.26904	0.03652
2634.20946	0.03610
2632.14987	0.03545
2630.09029	0.03512
2628.03070	0.03523
2625.97112	0.03551
2623.91153	0.03563
2621.85195	0.03544
2619.79236	0.03516
2617.73278	0.03490
2615.67319	0.03471
2613.61361	0.03462
2611.55402	0.03447
2609.49444	0.03441
2607.43485	0.03443
2605.37527	0.03428
2603.31568	0.03395
2601.25610	0.03346
2599.19651	0.03301
2597.13693	0.03289
2595.07734	0.03304
2593.01776	0.03332
2590.95817	0.03357
2588.89859	0.03355
2586.83900	0.03290
2584.77942	0.03207
2582.71983	0.03181
2580.66024	0.03176
2578.60066	0.03143
2576.54107	0.03126
2574.48149	0.03161
2572.42190	0.03206
2570.36232	0.03221
2568.30273	0.03218
2566.24315	0.03226
2564.18356	0.03223
2562.12398	0.03175
2560.06439	0.03112
2558.00481	0.03077
2555.94522	0.03100
2553.88564	0.03136
2551.82605	0.03141
2549.76647	0.03114
2547.70688	0.03044
2545.64730	0.02982
2543.58771	0.03005
2541.52813	0.03066
2539.46854	0.03061
2537.40896	0.03004
2535.34937	0.02967
2533.28979	0.02975
2531.23020	0.02985
2529.17062	0.02934
2527.11103	0.02874
2525.05144	0.02857
2522.99186	0.02863
2520.93227	0.02878
2518.87269	0.02872
2516.81310	0.02839
2514.75352	0.02823
2512.69393	0.02832
2510.63435	0.02833
2508.57476	0.02816
2506.51518	0.02797
2504.45559	0.02771
2502.39601	0.02747
2500.33642	0.02771
2498.27684	0.02809
2496.21725	0.02807
2494.15767	0.02782
2492.09808	0.02768
2490.03850	0.02778
2487.97891	0.02779
2485.91933	0.02769
2483.85974	0.02769
2481.80016	0.02749
2479.74057	0.02708
2477.68099	0.02700
2475.62140	0.02734
2473.56181	0.02752
2471.50223	0.02709
2469.44264	0.02651
2467.38306	0.02651
2465.32347	0.02705
2463.26389	0.02747
2461.20430	0.02735
2459.14472	0.02701
2457.08513	0.02687
2455.02555	0.02680
2452.96596	0.02680
2450.90638	0.02686
2448.84679	0.02686
2446.78721	0.02694
2444.72762	0.02682
2442.66804	0.02645
2440.60845	0.02628
2438.54887	0.02633
2436.48928	0.02627
2434.42970	0.02605
2432.37011	0.02579
2430.31053	0.02561
2428.25094	0.02560
2426.19136	0.02555
2424.13177	0.02565
2422.07219	0.02624
2420.01260	0.02655
2417.95301	0.02607
2415.89343	0.02546
2413.83384	0.02533
2411.77426	0.02553
2409.71467	0.02555
2407.65509	0.02518
2405.59550	0.02477
2403.53592	0.02477
2401.47633	0.02504
2399.41675	0.02530
2397.35716	0.02530
2395.29758	0.02519
2393.23799	0.02498
2391.17841	0.02465
2389.11882	0.02435
2387.05924	0.02418
2384.99965	0.02421
2382.94007	0.02442
2380.88048	0.02463
2378.82090	0.02487
2376.76131	0.02513
2374.70173	0.02601
2372.64214	0.02626
2370.58256	0.02544
2368.52297	0.02513
2366.46338	0.02491
2364.40380	0.02549
2362.34421	0.02632
2360.28463	0.02569
2358.22504	0.02559
2356.16546	0.02539
2354.10587	0.02568
2352.04629	0.02603
2349.98670	0.02404
2347.92712	0.02446
2345.86753	0.02603
2343.80795	0.02613
2341.74836	0.02691
2339.68878	0.02608
2337.62919	0.02545
2335.56961	0.02534
2333.51002	0.02393
2331.45044	0.02383
2329.39085	0.02349
2327.33127	0.02567
2325.27168	0.02785
2323.21210	0.02906
2321.15251	0.02852
2319.09293	0.02734
2317.03334	0.02651
2314.97376	0.02581
2312.91417	0.02583
2310.85458	0.02562
2308.79500	0.02476
2306.73541	0.02427
2304.67583	0.02419
2302.61624	0.02419
2300.55666	0.02402
2298.49707	0.02370
2296.43749	0.02323
2294.37790	0.02338
2292.31832	0.02398
2290.25873	0.02424
2288.19915	0.02388
2286.13956	0.02366
2284.07998	0.02403
2282.02039	0.02436
2279.96081	0.02383
2277.90122	0.02282
2275.84164	0.02204
2273.78205	0.02173
2271.72247	0.02174
2269.66288	0.02149
2267.60330	0.02115
2265.54371	0.02129
2263.48413	0.02188
2261.42454	0.02229
2259.36495	0.02205
2257.30537	0.02127
2255.24578	0.02064
2253.18620	0.02066
2251.12661	0.02092
2249.06703	0.02085
2247.00744	0.02075
2244.94786	0.02115
2242.88827	0.02115
2240.82869	0.02032
2238.76910	0.01985
2236.70952	0.02014
2234.64993	0.02018
2232.59035	0.02002
2230.53076	0.02052
2228.47118	0.02102
2226.41159	0.02057
2224.35201	0.01970
2222.29242	0.01920
2220.23284	0.01920
2218.17325	0.01921
2216.11367	0.01948
2214.05408	0.02027
2211.99450	0.02040
2209.93491	0.01996
2207.87533	0.02001
2205.81574	0.02022
2203.75615	0.02010
2201.69657	0.01976
2199.63698	0.01925
2197.57740	0.01875
2195.51781	0.01861
2193.45823	0.01887
2191.39864	0.01885
2189.33906	0.01805
2187.27947	0.01752
2185.21989	0.01799
2183.16030	0.01854
2181.10072	0.01837
2179.04113	0.01741
2176.98155	0.01615
2174.92196	0.01598
2172.86238	0.01691
2170.80279	0.01768
2168.74321	0.01800
2166.68362	0.01817
2164.62404	0.01833
2162.56445	0.01841
2160.50487	0.01767
2158.44528	0.01575
2156.38570	0.01459
2154.32611	0.01556
2152.26652	0.01710
2150.20694	0.01731
2148.14735	0.01651
2146.08777	0.01576
2144.02818	0.01546
2141.96860	0.01534
2139.90901	0.01518
2137.84943	0.01543
2135.78984	0.01575
2133.73026	0.01555
2131.67067	0.01550
2129.61109	0.01589
2127.55150	0.01632
2125.49192	0.01684
2123.43233	0.01744
2121.37275	0.01791
2119.31316	0.01768
2117.25358	0.01718
2115.19399	0.01770
2113.13441	0.01877
2111.07482	0.01929
2109.01524	0.01951
2106.95565	0.01944
2104.89607	0.01893
2102.83648	0.01868
2100.77690	0.01879
2098.71731	0.01886
2096.65772	0.01839
2094.59814	0.01795
2092.53855	0.01804
2090.47897	0.01827
2088.41938	0.01816
2086.35980	0.01813
2084.30021	0.01847
2082.24063	0.01863
2080.18104	0.01858
2078.12146	0.01879
2076.06187	0.01924
2074.00229	0.01949
2071.94270	0.01911
2069.88312	0.01838
2067.82353	0.01798
2065.76395	0.01791
2063.70436	0.01810
2061.64478	0.01839
2059.58519	0.01823
2057.52561	0.01770
2055.46602	0.01720
2053.40644	0.01709
2051.34685	0.01723
2049.28727	0.01684
2047.22768	0.01637
2045.16810	0.01633
2043.10851	0.01629
2041.04892	0.01632
2038.98934	0.01615
2036.92975	0.01556
2034.87017	0.01534
2032.81058	0.01535
2030.75100	0.01478
2028.69141	0.01386
2026.63183	0.01355
2024.57224	0.01401
2022.51266	0.01408
2020.45307	0.01379
2018.39349	0.01419
2016.33390	0.01531
2014.27432	0.01615
2012.21473	0.01598
2010.15515	0.01577
2008.09556	0.01610
2006.03598	0.01586
2003.97639	0.01533
2001.91681	0.01554
1999.85722	0.01593
1997.79764	0.01589
1995.73805	0.01545
1993.67847	0.01508
1991.61888	0.01525
1989.55929	0.01586
1987.49971	0.01653
1985.44012	0.01629
1983.38054	0.01517
1981.32095	0.01486
1979.26137	0.01511
1977.20178	0.01478
1975.14220	0.01475
1973.08261	0.01486
1971.02303	0.01391
1968.96344	0.01277
1966.90386	0.01268
1964.84427	0.01308
1962.78469	0.01325
1960.72510	0.01345
1958.66552	0.01353
1956.60593	0.01343
1954.54635	0.01391
1952.48676	0.01449
1950.42718	0.01428
1948.36759	0.01390
1946.30801	0.01363
1944.24842	0.01302
1942.18884	0.01272
1940.12925	0.01327
1938.06967	0.01400
1936.01008	0.01428
1933.95049	0.01411
1931.89091	0.01373
1929.83132	0.01364
1927.77174	0.01404
1925.71215	0.01452
1923.65257	0.01470
1921.59298	0.01457
1919.53340	0.01429
1917.47381	0.01408
1915.41423	0.01419
1913.35464	0.01448
1911.29506	0.01459
1909.23547	0.01446
1907.17589	0.01435
1905.11630	0.01439
1903.05672	0.01439
1900.99713	0.01419
1898.93755	0.01398
1896.87796	0.01389
1894.81838	0.01378
1892.75879	0.01371
1890.69921	0.01389
1888.63962	0.01404
1886.58004	0.01403
1884.52045	0.01406
1882.46086	0.01409
1880.40128	0.01414
1878.34169	0.01427
1876.28211	0.01435
1874.22252	0.01436
1872.16294	0.01428
1870.10335	0.01414
1868.04377	0.01411
1865.98418	0.01409
1863.92460	0.01408
1861.86501	0.01411
1859.80543	0.01405
1857.74584	0.01389
1855.68626	0.01375
1853.62667	0.01349
1851.56709	0.01306
1849.50750	0.01289
1847.44792	0.01335
1845.38833	0.01394
1843.32875	0.01403
1841.26916	0.01382
1839.20958	0.01374
1837.14999	0.01383
1835.09041	0.01381
1833.03082	0.01365
1830.97124	0.01366
1828.91165	0.01392
1826.85206	0.01415
1824.79248	0.01418
1822.73289	0.01412
1820.67331	0.01397
1818.61372	0.01371
1816.55414	0.01357
1814.49455	0.01368
1812.43497	0.01383
1810.37538	0.01392
1808.31580	0.01401
1806.25621	0.01417
1804.19663	0.01444
1802.13704	0.01469
1800.07746	0.01483
1798.01787	0.01500
1795.95829	0.01530
1793.89870	0.01557
1791.83912	0.01581
1789.77953	0.01605
1787.71995	0.01633
1785.66036	0.01661
1783.60078	0.01683
1781.54119	0.01703
1779.48161	0.01734
1777.42202	0.01775
1775.36243	0.01820
1773.30285	0.01864
1771.24326	0.01901
1769.18368	0.01925
1767.12409	0.01945
1765.06451	0.01973
1763.00492	0.02022
1760.94534	0.02097
1758.88575	0.02193
1756.82617	0.02303
1754.76658	0.02416
1752.70700	0.02532
1750.64741	0.02673
1748.58783	0.02821
1746.52824	0.02943
1744.46866	0.03049
1742.40907	0.03177
1740.34949	0.03332
1738.28990	0.03470
1736.23032	0.03564
1734.17073	0.03630
1732.11115	0.03673
1730.05156	0.03704
1727.99198	0.03758
1725.93239	0.03844
1723.87281	0.03947
1721.81322	0.04058
1719.75363	0.04199
1717.69405	0.04393
1715.63446	0.04624
1713.57488	0.04868
1711.51529	0.05150
1709.45571	0.05516
1707.39612	0.05999
1705.33654	0.06568
1703.27695	0.07147
1701.21737	0.07764
1699.15778	0.08396
1697.09820	0.08900
1695.03861	0.09299
1692.97903	0.09652
1690.91944	0.10002
1688.85986	0.10396
1686.80027	0.10855
1684.74069	0.11436
1682.68110	0.12065
1680.62152	0.12596
1678.56193	0.13086
1676.50235	0.13643
1674.44276	0.14262
1672.38318	0.14862
1670.32359	0.15471
1668.26401	0.16110
1666.20442	0.16690
1664.14483	0.17247
1662.08525	0.17845
1660.02566	0.18409
1657.96608	0.18878
1655.90649	0.19304
1653.84691	0.19784
1651.78732	0.20234
1649.72774	0.20500
1647.66815	0.20707
1645.60857	0.20944
1643.54898	0.21142
1641.48940	0.21300
1639.42981	0.21466
1637.37023	0.21660
1635.31064	0.21836
1633.25106	0.21893
1631.19147	0.21801
1629.13189	0.21539
1627.07230	0.21051
1625.01272	0.20309
1622.95313	0.19355
1620.89355	0.18349
1618.83396	0.17372
1616.77438	0.16353
1614.71479	0.15373
1612.65520	0.14526
1610.59562	0.13720
1608.53603	0.12901
1606.47645	0.12109
1604.41686	0.11388
1602.35728	0.10752
1600.29769	0.10198
1598.23811	0.09719
1596.17852	0.09303
1594.11894	0.08932
1592.05935	0.08603
1589.99977	0.08318
1587.94018	0.08085
1585.88060	0.07915
1583.82101	0.07819
1581.76143	0.07793
1579.70184	0.07822
1577.64226	0.07913
1575.58267	0.08075
1573.52309	0.08284
1571.46350	0.08549
1569.40392	0.08902
1567.34433	0.09287
1565.28475	0.09664
1563.22516	0.10045
1561.16558	0.10497
1559.10599	0.11098
1557.04640	0.11698
1554.98682	0.12156
1552.92723	0.12573
1550.86765	0.13004
1548.80806	0.13415
1546.74848	0.13785
1544.68889	0.14127
1542.62931	0.14464
1540.56972	0.14820
1538.51014	0.15145
1536.45055	0.15377
1534.39097	0.15577
1532.33138	0.15778
1530.27180	0.15945
1528.21221	0.16087
1526.15263	0.16227
1524.09304	0.16363
1522.03346	0.16511
1519.97387	0.16661
1517.91429	0.16753
1515.85470	0.16721
1513.79512	0.16523
1511.73553	0.16181
1509.67595	0.15728
1507.61636	0.15135
1505.55677	0.14432
1503.49719	0.13792
1501.43760	0.13217
1499.37802	0.12605
1497.31843	0.11930
1495.25885	0.11275
1493.19926	0.10716
1491.13968	0.10208
1489.08009	0.09708
1487.02051	0.09265
1484.96092	0.08915
1482.90134	0.08641
1480.84175	0.08426
1478.78217	0.08271
1476.72258	0.08183
1474.66300	0.08156
1472.60341	0.08165
1470.54383	0.08189
1468.48424	0.08233
1466.42466	0.08327
1464.36507	0.08479
1462.30549	0.08667
1460.24590	0.08884
1458.18632	0.09157
1456.12673	0.09449
1454.06715	0.09662
1452.00756	0.09804
1449.94797	0.09915
1447.88839	0.09982
1445.82880	0.09970
1443.76922	0.09865
1441.70963	0.09697
1439.65005	0.09510
1437.59046	0.09319
1435.53088	0.09135
1433.47129	0.08983
1431.41171	0.08878
1429.35212	0.08818
1427.29254	0.08802
1425.23295	0.08828
1423.17337	0.08892
1421.11378	0.08981
1419.05420	0.09085
1416.99461	0.09190
1414.93503	0.09285
1412.87544	0.09364
1410.81586	0.09411
1408.75627	0.09420
1406.69669	0.09394
1404.63710	0.09342
1402.57752	0.09269
1400.51793	0.09185
1398.45834	0.09103
1396.39876	0.09034
1394.33917	0.08987
1392.27959	0.08964
1390.22000	0.08961
1388.16042	0.08979
1386.10083	0.09007
1384.04125	0.09029
1381.98166	0.09051
1379.92208	0.09077
1377.86249	0.09104
1375.80291	0.09133
1373.74332	0.09156
1371.68374	0.09139
1369.62415	0.09062
1367.56457	0.08933
1365.50498	0.08782
1363.44540	0.08634
1361.38581	0.08502
1359.32623	0.08392
1357.26664	0.08307
1355.20706	0.08247
1353.14747	0.08206
1351.08789	0.08187
1349.02830	0.08194
1346.96872	0.08225
1344.90913	0.08280
1342.84954	0.08343
1340.78996	0.08394
1338.73037	0.08422
1336.67079	0.08416
1334.61120	0.08369
1332.55162	0.08284
1330.49203	0.08181
1328.43245	0.08085
1326.37286	0.08008
1324.31328	0.07949
1322.25369	0.07906
1320.19411	0.07881
1318.13452	0.07868
1316.07494	0.07851
1314.01535	0.07820
1311.95577	0.07770
1309.89618	0.07699
1307.83660	0.07618
1305.77701	0.07542
1303.71743	0.07476
1301.65784	0.07416
1299.59826	0.07359
1297.53867	0.07310
1295.47909	0.07282
1293.41950	0.07275
1291.35991	0.07276
1289.30033	0.07275
1287.24074	0.07284
1285.18116	0.07308
1283.12157	0.07340
1281.06199	0.07371
1279.00240	0.07398
1276.94282	0.07437
1274.88323	0.07500
1272.82365	0.07571
1270.76406	0.07642
1268.70448	0.07720
1266.64489	0.07799
1264.58531	0.07880
1262.52572	0.07963
1260.46614	0.08043
1258.40655	0.08115
1256.34697	0.08187
1254.28738	0.08273
1252.22780	0.08374
1250.16821	0.08490
1248.10863	0.08628
1246.04904	0.08773
1243.98946	0.08906
1241.92987	0.09021
1239.87029	0.09110
1237.81070	0.09167
1235.75111	0.09195
1233.69153	0.09190
1231.63194	0.09161
1229.57236	0.09115
1227.51277	0.09055
1225.45319	0.08978
1223.39360	0.08873
1221.33402	0.08738
1219.27443	0.08580
1217.21485	0.08389
1215.15526	0.08163
1213.09568	0.07935
1211.03609	0.07728
1208.97651	0.07541
1206.91692	0.07368
1204.85734	0.07207
1202.79775	0.07048
1200.73817	0.06904
1198.67858	0.06786
1196.61900	0.06683
1194.55941	0.06590
1192.49983	0.06519
1190.44024	0.06477
1188.38066	0.06465
1186.32107	0.06478
1184.26149	0.06519
1182.20190	0.06595
1180.14231	0.06717
1178.08273	0.06875
1176.02314	0.07051
1173.96356	0.07223
1171.90397	0.07375
1169.84439	0.07503
1167.78480	0.07596
1165.72522	0.07647
1163.66563	0.07656
1161.60605	0.07625
1159.54646	0.07554
1157.48688	0.07440
1155.42729	0.07305
1153.36771	0.07186
1151.30812	0.07103
1149.24854	0.07038
1147.18895	0.06976
1145.12937	0.06913
1143.06978	0.06854
1141.01020	0.06819
1138.95061	0.06814
1136.89103	0.06824
1134.83144	0.06838
1132.77186	0.06863
1130.71227	0.06904
1128.65268	0.06954
1126.59310	0.07008
1124.53351	0.07063
1122.47393	0.07118
1120.41434	0.07174
1118.35476	0.07238
1116.29517	0.07316
1114.23559	0.07394
1112.17600	0.07454
1110.11642	0.07488
1108.05683	0.07505
1105.99725	0.07520
1103.93766	0.07524
1101.87808	0.07503
1099.81849	0.07464
1097.75891	0.07420
1095.69932	0.07374
1093.63974	0.07329
1091.58015	0.07289
1089.52057	0.07261
1087.46098	0.07257
1085.40140	0.07277
1083.34181	0.07295
1081.28223	0.07302
1079.22264	0.07306
1077.16306	0.07305
1075.10347	0.07300
1073.04388	0.07311
1070.98430	0.07342
1068.92471	0.07389
1066.86513	0.07467
1064.80554	0.07589
1062.74596	0.07736
1060.68637	0.07880
1058.62679	0.08006
1056.56720	0.08093
1054.50762	0.08128
1052.44803	0.08120
1050.38845	0.08073
1048.32886	0.07997
1046.26928	0.07908
1044.20969	0.07830
1042.15011	0.07798
1040.09052	0.07805
1038.03094	0.07829
1035.97135	0.07861
1033.91177	0.07891
1031.85218	0.07904
1029.79260	0.07892
1027.73301	0.07855
1025.67343	0.07806
1023.61384	0.07756
1021.55425	0.07708
1019.49467	0.07661
1017.43508	0.07601
1015.37550	0.07523
1013.31591	0.07432
1011.25633	0.07330
1009.19674	0.07212
1007.13716	0.07088
1005.07757	0.06973
1003.01799	0.06866
1000.95840	0.06762
998.89882	0.06649
996.83923	0.06526
994.77965	0.06401
992.72006	0.06274
990.66048	0.06152
988.60089	0.06052
986.54131	0.05981
984.48172	0.05927
982.42214	0.05867
980.36255	0.05795
978.30297	0.05716
976.24338	0.05643
974.18380	0.05604
972.12421	0.05618
970.06463	0.05665
968.00504	0.05702
965.94545	0.05692
963.88587	0.05613
961.82628	0.05469
959.76670	0.05287
957.70711	0.05101
955.64753	0.04932
953.58794	0.04792
951.52836	0.04677
949.46877	0.04573
947.40919	0.04480
945.34960	0.04406
943.29002	0.04349
941.23043	0.04293
939.17085	0.04234
937.11126	0.04174
935.05168	0.04122
932.99209	0.04084
930.93251	0.04047
928.87292	0.04013
926.81334	0.03982
924.75375	0.03943
922.69417	0.03899
920.63458	0.03850
918.57500	0.03791
916.51541	0.03735
914.45582	0.03698
912.39624	0.03668
910.33665	0.03639
908.27707	0.03615
906.21748	0.03596
904.15790	0.03583
902.09831	0.03570
900.03873	0.03550
897.97914	0.03534
895.91956	0.03519
893.85997	0.03497
891.80039	0.03471
889.74080	0.03439
887.68122	0.03411
885.62163	0.03399
883.56205	0.03403
881.50246	0.03410
879.44288	0.03421
877.38329	0.03447
875.32371	0.03476
873.26412	0.03469
871.20454	0.03406
869.14495	0.03320
867.08537	0.03250
865.02578	0.03201
862.96620	0.03160
860.90661	0.03132
858.84702	0.03138
856.78744	0.03162
854.72785	0.03175
852.66827	0.03174
850.60868	0.03168
848.54910	0.03166
846.48951	0.03166
844.42993	0.03165
842.37034	0.03166
840.31076	0.03182
838.25117	0.03209
836.19159	0.03233
834.13200	0.03255
832.07242	0.03280
830.01283	0.03317
827.95325	0.03362
825.89366	0.03383
823.83408	0.03359
821.77449	0.03310
819.71491	0.03270
817.65532	0.03259
815.59574	0.03280
813.53615	0.03308
811.47657	0.03326
809.41698	0.03341
807.35740	0.03363
805.29781	0.03381
803.23822	0.03385
801.17864	0.03389
799.11905	0.03405
797.05947	0.03423
794.99988	0.03439
792.94030	0.03450
790.88071	0.03455
788.82113	0.03477
786.76154	0.03519
784.70196	0.03564
782.64237	0.03596
780.58279	0.03623
778.52320	0.03650
776.46362	0.03666
774.40403	0.03676
772.34445	0.03686
770.28486	0.03692
768.22528	0.03697
766.16569	0.03706
764.10611	0.03720
762.04652	0.03740
759.98694	0.03756
757.92735	0.03759
755.86777	0.03756
753.80818	0.03765
751.74859	0.03791
749.68901	0.03822
747.62942	0.03858
745.56984	0.03898
743.51025	0.03946
741.45067	0.04010
739.39108	0.04100
737.33150	0.04193
735.27191	0.04276
733.21233	0.04371
731.15274	0.04489
729.09316	0.04602
727.03357	0.04698
724.97399	0.04790
722.91440	0.04888
720.85482	0.04987
718.79523	0.05041
716.73565	0.05094
714.67606	0.05165
712.61648	0.05249
710.55689	0.05316
708.49731	0.05365
706.43772	0.05406
704.37814	0.05446
702.31855	0.05500
700.25897	0.05556
698.19938	0.05586
696.13979	0.05592
694.08021	0.05592
692.02062	0.05593
689.96104	0.05589
687.90145	0.05581
685.84187	0.05578
683.78228	0.05589
681.72270	0.05610
679.66311	0.05633
677.60353	0.05665
675.54394	0.05722
673.48436	0.05790
671.42477	0.05759
669.36519	0.05647
667.30560	0.05983
665.24602	0.05846
663.18643	0.05814
661.12685	0.05789
659.06726	0.05746
657.00768	0.05712
654.94809	0.05701
652.88851	0.05701
650.82892	0.05693
648.76934	0.05693
646.70975	0.05693
644.65016	0.05694
642.59058	0.05701
640.53099	0.05724
638.47141	0.05757
636.41182	0.05793
634.35224	0.05826
632.29265	0.05857
630.23307	0.05901
628.17348	0.05963
626.11390	0.06015
624.05431	0.06032
621.99473	0.06042
619.93514	0.06081
617.87556	0.06141
615.81597	0.06185
613.75639	0.06186
611.69680	0.06158
609.63722	0.06129
607.57763	0.06118
605.51805	0.06126
603.45846	0.06129
601.39888	0.06109
599.33929	0.06072
597.27971	0.06033
595.22012	0.06006
593.16054	0.05992
591.10095	0.05986
589.04136	0.05988
586.98178	0.06000
584.92219	0.06015
582.86261	0.06029
580.80302	0.06041
578.74344	0.06036
576.68385	0.06022
574.62427	0.06033
572.56468	0.06053
570.50510	0.06057
568.44551	0.06072
566.38593	0.06113
564.32634	0.06162
562.26676	0.06206
560.20717	0.06247
558.14759	0.06265
556.08800	0.06250
554.02842	0.06220
551.96883	0.06200
549.90925	0.06197
547.84966	0.06193
545.79008	0.06179
543.73049	0.06150
541.67091	0.06104
539.61132	0.06064
537.55173	0.06040
535.49215	0.06019
533.43256	0.06003
531.37298	0.05978
529.31339	0.05932
527.25381	0.05897
525.19422	0.05885
523.13464	0.05865
521.07505	0.05832
519.01547	0.05787
516.95588	0.05723
514.89630	0.05647
512.83671	0.05575
510.77713	0.05526
508.71754	0.05506
506.65796	0.05498
504.59837	0.05468
502.53879	0.05410
500.47920	0.05373
498.41962	0.05363
496.36003	0.05338
494.30045	0.05304
492.24086	0.05275
490.18128	0.05245
488.12169	0.05208
486.06211	0.05168
484.00252	0.05135
481.94293	0.05105
479.88335	0.05078
477.82376	0.05062
475.76418	0.05046
473.70459	0.05028
471.64501	0.05014
469.58542	0.05002
467.52584	0.04995
465.46625	0.04995
463.40667	0.04996
461.34708	0.04967
459.28750	0.04911
457.22791	0.04884
455.16833	0.04895
453.10874	0.04898
451.04916	0.04880
448.98957	0.04880
446.92999	0.04917
444.87040	0.04937
442.81082	0.04909
440.75123	0.04867
438.69165	0.04821
436.63206	0.04778
434.57248	0.04735
432.51289	0.04653
430.45330	0.04527
428.39372	0.04426
426.33413	0.04381
424.27455	0.04359
422.21496	0.04321
420.15538	0.04262
418.09579	0.04229
416.03621	0.04238
413.97662	0.04226
411.91704	0.04158
409.85745	0.04085
407.79787	0.04059
405.73828	0.04035
403.67870	0.03982
401.61911	0.03936
399.55953	0.03896
