3997.70013,0.06933
3995.64052,0.06874
3993.58092,0.06902
3991.52131,0.06997
3989.46170,0.07069
3987.40209,0.07082
3985.34248,0.07045
3983.28287,0.06998
3981.22327,0.06967
3979.16366,0.06950
3977.10405,0.06931
3975.04444,0.06877
3972.98483,0.06808
3970.92522,0.06767
3968.86561,0.06788
3966.80601,0.06851
3964.74640,0.06867
3962.68679,0.06847
3960.62718,0.06845
3958.56757,0.06813
3956.50796,0.06791
3954.44835,0.06850
3952.38875,0.06870
3950.32914,0.06819
3948.26953,0.06805
3946.20992,0.06785
3944.15031,0.06724
3942.09070,0.06706
3940.03109,0.06753
3937.97149,0.06780
3935.91188,0.06721
3933.85227,0.06640
3931.79266,0.06624
3929.73305,0.06637
3927.67344,0.06624
3925.61384,0.06594
3923.55423,0.06593
3921.49462,0.06631
3919.43501,0.06690
3917.37540,0.06779
3915.31579,0.06807
3913.25618,0.06716
3911.19658,0.06620
3909.13697,0.06571
3907.07736,0.06549
3905.01775,0.06563
3902.95814,0.06600
3900.89853,0.06617
3898.83892,0.06608
3896.77932,0.06593
3894.71971,0.06579
3892.66010,0.06580
3890.60049,0.06595
3888.54088,0.06608
3886.48127,0.06616
3884.42166,0.06591
3882.36206,0.06507
3880.30245,0.06475
3878.24284,0.06562
3876.18323,0.06649
3874.12362,0.06665
3872.06401,0.06588
3870.00441,0.06486
3867.94480,0.06452
3865.88519,0.06482
3863.82558,0.06540
3861.76597,0.06541
3859.70636,0.06455
3857.64675,0.06338
3855.58715,0.06292
3853.52754,0.06405
3851.46793,0.06499
3849.40832,0.06445
3847.34871,0.06330
3845.28910,0.06255
3843.22949,0.06298
3841.16989,0.06404
3839.11028,0.06481
3837.05067,0.06453
3834.99106,0.06320
3832.93145,0.06213
3830.87184,0.06210
3828.81223,0.06258
3826.75263,0.06307
3824.69302,0.06334
3822.63341,0.06290
3820.57380,0.06234
3818.51419,0.06255
3816.45458,0.06253
3814.39498,0.06177
3812.33537,0.06123
3810.27576,0.06101
3808.21615,0.06095
3806.15654,0.06147
3804.09693,0.06194
3802.03732,0.06200
3799.97772,0.06191
3797.91811,0.06171
3795.85850,0.06170
3793.79889,0.06177
3791.73928,0.06147
3789.67967,0.06104
3787.62006,0.06096
3785.56046,0.06088
3783.50085,0.06074
3781.44124,0.06094
3779.38163,0.06105
3777.32202,0.06088
3775.26241,0.06052
3773.20280,0.05998
3771.14320,0.05997
3769.08359,0.06072
3767.02398,0.06107
3764.96437,0.06062
3762.90476,0.06015
3760.84515,0.06014
3758.78555,0.06051
3756.72594,0.06053
3754.66633,0.05989
3752.60672,0.05922
3750.54711,0.05867
3748.48750,0.05800
3746.42789,0.05759
3744.36829,0.05764
3742.30868,0.05784
3740.24907,0.05798
3738.18946,0.05778
3736.12985,0.05745
3734.07024,0.05849
3732.01063,0.05978
3729.95103,0.05942
3727.89142,0.05831
3725.83181,0.05733
3723.77220,0.05678
3721.71259,0.05703
3719.65298,0.05782
3717.59337,0.05848
3715.53377,0.05860
3713.47416,0.05799
3711.41455,0.05689
3709.35494,0.05619
3707.29533,0.05635
3705.23572,0.05672
3703.17612,0.05743
3701.11651,0.05855
3699.05690,0.05840
3696.99729,0.05717
3694.93768,0.05669
3692.87807,0.05709
3690.81846,0.05740
3688.75886,0.05697
3686.69925,0.05669
3684.63964,0.05734
3682.58003,0.05805
3680.52042,0.05842
3678.46081,0.05852
3676.40120,0.05830
3674.34160,0.05862
3672.28199,0.05906
3670.22238,0.05901
3668.16277,0.05943
3666.10316,0.06043
3664.04355,0.06135
3661.98394,0.06188
3659.92434,0.06224
3657.86473,0.06270
3655.80512,0.06321
3653.74551,0.06372
3651.68590,0.06469
3649.62629,0.06633
3647.56669,0.06732
3645.50708,0.06734
3643.44747,0.06745
3641.38786,0.06802
3639.32825,0.06863
3637.26864,0.06887
3635.20903,0.06911
3633.14943,0.06996
3631.08982,0.07170
3629.03021,0.07427
3626.97060,0.07594
3624.91099,0.07648
3622.85138,0.07697
3620.79177,0.07745
3618.73217,0.07859
3616.67256,0.08027
3614.61295,0.08164
3612.55334,0.08260
3610.49373,0.08338
3608.43412,0.08438
3606.37451,0.08574
3604.31491,0.08726
3602.25530,0.08842
3600.19569,0.08876
3598.13608,0.08871
3596.07647,0.08930
3594.01686,0.09055
3591.95726,0.09169
3589.89765,0.09302
3587.83804,0.09462
3585.77843,0.09564
3583.71882,0.09631
3581.65921,0.09724
3579.59960,0.09834
3577.54000,0.09938
3575.48039,0.10040
3573.42078,0.10145
3571.36117,0.10253
3569.30156,0.10389
3567.24195,0.10550
3565.18234,0.10672
3563.12274,0.10747
3561.06313,0.10889
3559.00352,0.11102
3556.94391,0.11248
3554.88430,0.11323
3552.82469,0.11436
3550.76508,0.11580
3548.70548,0.11688
3546.64587,0.11795
3544.58626,0.11943
3542.52665,0.12118
3540.46704,0.12243
3538.40743,0.12306
3536.34783,0.12432
3534.28822,0.12611
3532.22861,0.12758
3530.16900,0.12898
3528.10939,0.13042
3526.04978,0.13140
3523.99017,0.13200
3521.93057,0.13295
3519.87096,0.13444
3517.81135,0.13584
3515.75174,0.13661
3513.69213,0.13704
3511.63252,0.13773
3509.57291,0.13878
3507.51331,0.13973
3505.45370,0.14041
3503.39409,0.14156
3501.33448,0.14305
3499.27487,0.14363
3497.21526,0.14403
3495.15565,0.14543
3493.09605,0.14681
3491.03644,0.14764
3488.97683,0.14867
3486.91722,0.14953
3484.85761,0.15005
3482.79800,0.15104
3480.73840,0.15237
3478.67879,0.15338
3476.61918,0.15437
3474.55957,0.15554
3472.49996,0.15655
3470.44035,0.15747
3468.38074,0.15847
3466.32114,0.15951
3464.26153,0.16037
3462.20192,0.16077
3460.14231,0.16119
3458.08270,0.16212
3456.02309,0.16298
3453.96348,0.16349
3451.90388,0.16437
3449.84427,0.16585
3447.78466,0.16701
3445.72505,0.16765
3443.66544,0.16827
3441.60583,0.16900
3439.54622,0.16994
3437.48662,0.17110
3435.42701,0.17246
3433.36740,0.17350
3431.30779,0.17420
3429.24818,0.17529
3427.18857,0.17662
3425.12897,0.17782
3423.06936,0.17893
3421.00975,0.17975
3418.95014,0.18063
3416.89053,0.18215
3414.83092,0.18383
3412.77131,0.18520
3410.71171,0.18641
3408.65210,0.18758
3406.59249,0.18874
3404.53288,0.18995
3402.47327,0.19103
3400.41366,0.19167
3398.35405,0.19217
3396.29445,0.19299
3394.23484,0.19382
3392.17523,0.19439
3390.11562,0.19506
3388.05601,0.19608
3385.99640,0.19736
3383.93679,0.19833
3381.87719,0.19867
3379.81758,0.19934
3377.75797,0.20058
3375.69836,0.20152
3373.63875,0.20239
3371.57914,0.20373
3369.51954,0.20519
3367.45993,0.20626
3365.40032,0.20690
3363.34071,0.20766
3361.28110,0.20881
3359.22149,0.21008
3357.16188,0.21132
3355.10228,0.21254
3353.04267,0.21386
3350.98306,0.21523
3348.92345,0.21656
3346.86384,0.21778
3344.80423,0.21861
3342.74462,0.21936
3340.68502,0.22070
3338.62541,0.22237
3336.56580,0.22401
3334.50619,0.22601
3332.44658,0.22791
3330.38697,0.22894
3328.32736,0.23005
3326.26776,0.23198
3324.20815,0.23428
3322.14854,0.23654
3320.08893,0.23847
3318.02932,0.24041
3315.96971,0.24289
3313.91011,0.24542
3311.85050,0.24753
3309.79089,0.24955
3307.73128,0.25146
3305.67167,0.25337
3303.61206,0.25562
3301.55245,0.25800
3299.49285,0.26028
3297.43324,0.26241
3295.37363,0.26442
3293.31402,0.26651
3291.25441,0.26823
3289.19480,0.26930
3287.13519,0.27070
3285.07559,0.27242
3283.01598,0.27377
3280.95637,0.27495
3278.89676,0.27574
3276.83715,0.27614
3274.77754,0.27677
3272.71793,0.27755
3270.65833,0.27783
3268.59872,0.27719
3266.53911,0.27612
3264.47950,0.27525
3262.41989,0.27441
3260.36028,0.27348
3258.30068,0.27255
3256.24107,0.27152
3254.18146,0.27023
3252.12185,0.26881
3250.06224,0.26750
3248.00263,0.26610
3245.94302,0.26435
3243.88342,0.26277
3241.82381,0.26188
3239.76420,0.26098
3237.70459,0.25922
3235.64498,0.25707
3233.58537,0.25559
3231.52576,0.25471
3229.46616,0.25356
3227.40655,0.25221
3225.34694,0.25127
3223.28733,0.25022
3221.22772,0.24872
3219.16811,0.24751
3217.10850,0.24675
3215.04890,0.24590
3212.98929,0.24465
3210.92968,0.24319
3208.87007,0.24177
3206.81046,0.24045
3204.75085,0.23928
3202.69125,0.23806
3200.63164,0.23655
3198.57203,0.23505
3196.51242,0.23370
3194.45281,0.23240
3192.39320,0.23124
3190.33359,0.22981
3188.27399,0.22819
3186.21438,0.22705
3184.15477,0.22591
3182.09516,0.22401
3180.03555,0.22164
3177.97594,0.21921
3175.91633,0.21718
3173.85673,0.21596
3171.79712,0.21492
3169.73751,0.21332
3167.67790,0.21121
3165.61829,0.20904
3163.55868,0.20716
3161.49907,0.20571
3159.43947,0.20462
3157.37986,0.20333
3155.32025,0.20145
3153.26064,0.19922
3151.20103,0.19711
3149.14142,0.19564
3147.08182,0.19477
3145.02221,0.19394
3142.96260,0.19301
3140.90299,0.19200
3138.84338,0.19061
3136.78377,0.18872
3134.72416,0.18718
3132.66456,0.18652
3130.60495,0.18574
3128.54534,0.18449
3126.48573,0.18381
3124.42612,0.18371
3122.36651,0.18327
3120.30690,0.18232
3118.24730,0.18159
3116.18769,0.18143
3114.12808,0.18127
3112.06847,0.18082
3110.00886,0.18046
3107.94925,0.18037
3105.88965,0.18023
3103.83004,0.17991
3101.77043,0.17996
3099.71082,0.18040
3097.65121,0.18071
3095.59160,0.18101
3093.53199,0.18159
3091.47239,0.18239
3089.41278,0.18310
3087.35317,0.18376
3085.29356,0.18459
3083.23395,0.18520
3081.17434,0.18525
3079.11473,0.18517
3077.05513,0.18524
3074.99552,0.18532
3072.93591,0.18543
3070.87630,0.18537
3068.81669,0.18518
3066.75708,0.18515
3064.69747,0.18524
3062.63787,0.18507
3060.57826,0.18447
3058.51865,0.18365
3056.45904,0.18270
3054.39943,0.18162
3052.33982,0.18043
3050.28022,0.17930
3048.22061,0.17846
3046.16100,0.17761
3044.10139,0.17634
3042.04178,0.17479
3039.98217,0.17321
3037.92256,0.17181
3035.86296,0.17055
3033.80335,0.16924
3031.74374,0.16802
3029.68413,0.16688
3027.62452,0.16581
3025.56491,0.16491
3023.50530,0.16390
3021.44570,0.16264
3019.38609,0.16128
3017.32648,0.15984
3015.26687,0.15835
3013.20726,0.15690
3011.14765,0.15559
3009.08804,0.15447
3007.02844,0.15338
3004.96883,0.15236
3002.90922,0.15176
3000.84961,0.15134
2998.79000,0.15062
2996.73039,0.14999
2994.67079,0.15025
2992.61118,0.15121
2990.55157,0.15228
2988.49196,0.15348
2986.43235,0.15490
2984.37274,0.15659
2982.31313,0.15867
2980.25353,0.16107
2978.19392,0.16354
2976.13431,0.16616
2974.07470,0.16917
2972.01509,0.17237
2969.95548,0.17544
2967.89587,0.17829
2965.83627,0.18077
2963.77666,0.18262
2961.71705,0.18335
2959.65744,0.18298
2957.59783,0.18180
2955.53822,0.17994
2953.47861,0.17809
2951.41901,0.17641
2949.35940,0.17471
2947.29979,0.17355
2945.24018,0.17321
2943.18057,0.17364
2941.12096,0.17468
2939.06136,0.17582
2937.00175,0.17676
2934.94214,0.17741
2932.88253,0.17775
2930.82292,0.17780
2928.76331,0.17698
2926.70370,0.17523
2924.64410,0.17339
2922.58449,0.17172
2920.52488,0.16987
2918.46527,0.16777
2916.40566,0.16579
2914.34605,0.16416
2912.28644,0.16237
2910.22684,0.16027
2908.16723,0.15838
2906.10762,0.15701
2904.04801,0.15585
2901.98840,0.15452
2899.92879,0.15325
2897.86918,0.15221
2895.80958,0.15097
2893.74997,0.14965
2891.69036,0.14883
2889.63075,0.14840
2887.57114,0.14809
2885.51153,0.14825
2883.45193,0.14889
2881.39232,0.14966
2879.33271,0.15050
2877.27310,0.15142
2875.21349,0.15212
2873.15388,0.15202
2871.09427,0.15096
2869.03467,0.14922
2866.97506,0.14711
2864.91545,0.14474
2862.85584,0.14227
2860.79623,0.14016
2858.73662,0.13841
2856.67701,0.13683
2854.61741,0.13550
2852.55780,0.13429
2850.49819,0.13312
2848.43858,0.13192
2846.37897,0.13046
2844.31936,0.12886
2842.25975,0.12766
2840.20015,0.12682
2838.14054,0.12598
2836.08093,0.12522
2834.02132,0.12459
2831.96171,0.12400
2829.90210,0.12354
2827.84250,0.12305
2825.78289,0.12236
2823.72328,0.12163
2821.66367,0.12095
2819.60406,0.12047
2817.54445,0.12005
2815.48484,0.11950
2813.42524,0.11883
2811.36563,0.11822
2809.30602,0.11789
2807.24641,0.11761
2805.18680,0.11701
2803.12719,0.11641
2801.06758,0.11609
2799.00798,0.11569
2796.94837,0.11498
2794.88876,0.11422
2792.82915,0.11369
2790.76954,0.11334
2788.70993,0.11282
2786.65032,0.11209
2784.59072,0.11149
2782.53111,0.11099
2780.47150,0.11052
2778.41189,0.11009
2776.35228,0.10957
2774.29267,0.10887
2772.23307,0.10818
2770.17346,0.10777
2768.11385,0.10752
2766.05424,0.10706
2763.99463,0.10645
2761.93502,0.10605
2759.87541,0.10576
2757.81581,0.10536
2755.75620,0.10498
2753.69659,0.10455
2751.63698,0.10394
2749.57737,0.10316
2747.51776,0.10236
2745.45815,0.10180
2743.39855,0.10133
2741.33894,0.10100
2739.27933,0.10096
2737.21972,0.10071
2735.16011,0.10013
2733.10050,0.09972
2731.04089,0.09958
2728.98129,0.09927
2726.92168,0.09867
2724.86207,0.09811
2722.80246,0.09777
2720.74285,0.09738
2718.68324,0.09674
2716.62364,0.09611
2714.56403,0.09558
2712.50442,0.09514
2710.44481,0.09485
2708.38520,0.09467
2706.32559,0.09445
2704.26598,0.09412
2702.20638,0.09376
2700.14677,0.09351
2698.08716,0.09328
2696.02755,0.09309
2693.96794,0.09299
2691.90833,0.09276
2689.84872,0.09239
2687.78912,0.09204
2685.72951,0.09175
2683.66990,0.09150
2681.61029,0.09127
2679.55068,0.09127
2677.49107,0.09138
2675.43146,0.09120
2673.37186,0.09080
2671.31225,0.09039
2669.25264,0.09010
2667.19303,0.08997
2665.13342,0.08972
2663.07381,0.08939
2661.01421,0.08923
2658.95460,0.08922
2656.89499,0.08929
2654.83538,0.08917
2652.77577,0.08879
2650.71616,0.08834
2648.65655,0.08791
2646.59695,0.08755
2644.53734,0.08719
2642.47773,0.08684
2640.41812,0.08665
2638.35851,0.08644
2636.29890,0.08597
2634.23929,0.08533
2632.17969,0.08487
2630.12008,0.08480
2628.06047,0.08462
2626.00086,0.08414
2623.94125,0.08381
2621.88164,0.08364
2619.82203,0.08337
2617.76243,0.08291
2615.70282,0.08232
2613.64321,0.08176
2611.58360,0.08147
2609.52399,0.08159
2607.46438,0.08160
2605.40478,0.08108
2603.34517,0.08052
2601.28556,0.08020
2599.22595,0.08000
2597.16634,0.07984
2595.10673,0.07952
2593.04712,0.07897
2590.98752,0.07849
2588.92791,0.07816
2586.86830,0.07764
2584.80869,0.07702
2582.74908,0.07670
2580.68947,0.07651
2578.62986,0.07610
2576.57026,0.07569
2574.51065,0.07546
2572.45104,0.07529
2570.39143,0.07529
2568.33182,0.07534
2566.27221,0.07516
2564.21260,0.07495
2562.15300,0.07493
2560.09339,0.07506
2558.03378,0.07504
2555.97417,0.07470
2553.91456,0.07411
2551.85495,0.07330
2549.79535,0.07252
2547.73574,0.07227
2545.67613,0.07244
2543.61652,0.07236
2541.55691,0.07195
2539.49730,0.07173
2537.43769,0.07176
2535.37809,0.07164
2533.31848,0.07152
2531.25887,0.07140
2529.19926,0.07095
2527.13965,0.07039
2525.08004,0.07023
2523.02043,0.07041
2520.96083,0.07045
2518.90122,0.07023
2516.84161,0.07001
2514.78200,0.06995
2512.72239,0.06982
2510.66278,0.06965
2508.60317,0.06959
2506.54357,0.06944
2504.48396,0.06904
2502.42435,0.06860
2500.36474,0.06832
2498.30513,0.06806
2496.24552,0.06782
2494.18592,0.06767
2492.12631,0.06759
2490.06670,0.06761
2488.00709,0.06769
2485.94748,0.06758
2483.88787,0.06696
2481.82826,0.06626
2479.76866,0.06603
2477.70905,0.06634
2475.64944,0.06664
2473.58983,0.06661
2471.53022,0.06650
2469.47061,0.06629
2467.41100,0.06610
2465.35140,0.06605
2463.29179,0.06588
2461.23218,0.06538
2459.17257,0.06477
2457.11296,0.06429
2455.05335,0.06421
2452.99374,0.06441
2450.93414,0.06434
2448.87453,0.06418
2446.81492,0.06414
2444.75531,0.06390
2442.69570,0.06362
2440.63609,0.06354
2438.57649,0.06342
2436.51688,0.06315
2434.45727,0.06288
2432.39766,0.06264
2430.33805,0.06238
2428.27844,0.06200
2426.21883,0.06176
2424.15923,0.06168
2422.09962,0.06162
2420.04001,0.06178
2417.98040,0.06189
2415.92079,0.06167
2413.86118,0.06148
2411.80157,0.06138
2409.74197,0.06121
2407.68236,0.06102
2405.62275,0.06087
2403.56314,0.06060
2401.50353,0.06037
2399.44392,0.06039
2397.38431,0.06043
2395.32471,0.06022
2393.26510,0.05986
2391.20549,0.05974
2389.14588,0.06005
2387.08627,0.06029
2385.02666,0.06022
2382.96706,0.06008
2380.90745,0.05989
2378.84784,0.05944
2376.78823,0.05890
2374.72862,0.05869
2372.66901,0.05865
2370.60940,0.05839
2368.54980,0.05812
2366.49019,0.05834
2364.43058,0.05903
2362.37097,0.05927
2360.31136,0.05889
2358.25175,0.05901
2356.19214,0.05949
2354.13254,0.05938
2352.07293,0.05915
2350.01332,0.05933
2347.95371,0.05957
2345.89410,0.05939
2343.83449,0.05867
2341.77488,0.05809
2339.71528,0.05804
2337.65567,0.05808
2335.59606,0.05796
2333.53645,0.05773
2331.47684,0.05762
2329.41723,0.05784
2327.35763,0.05837
2325.29802,0.05899
2323.23841,0.05912
2321.17880,0.05875
2319.11919,0.05837
2317.05958,0.05788
2314.99997,0.05734
2312.94037,0.05704
2310.88076,0.05700
2308.82115,0.05706
2306.76154,0.05692
2304.70193,0.05665
2302.64232,0.05638
2300.58271,0.05589
2298.52311,0.05526
2296.46350,0.05480
2294.40389,0.05470
2292.34428,0.05498
2290.28467,0.05542
2288.22506,0.05538
2286.16545,0.05483
2284.10585,0.05451
2282.04624,0.05427
2279.98663,0.05350
2277.92702,0.05253
2275.86741,0.05193
2273.80780,0.05148
2271.74820,0.05092
2269.68859,0.05067
2267.62898,0.05084
2265.56937,0.05096
2263.50976,0.05071
2261.45015,0.05026
2259.39054,0.05002
2257.33094,0.05021
2255.27133,0.05049
2253.21172,0.05023
2251.15211,0.04960
2249.09250,0.04867
2247.03289,0.04757
2244.97328,0.04729
2242.91368,0.04788
2240.85407,0.04813
2238.79446,0.04761
2236.73485,0.04715
2234.67524,0.04691
2232.61563,0.04635
2230.55602,0.04599
2228.49642,0.04633
2226.43681,0.04649
2224.37720,0.04598
2222.31759,0.04558
2220.25798,0.04519
2218.19837,0.04483
2216.13877,0.04538
2214.07916,0.04608
2212.01955,0.04551
2209.95994,0.04462
2207.90033,0.04472
2205.84072,0.04516
2203.78111,0.04509
2201.72151,0.04475
2199.66190,0.04477
2197.60229,0.04448
2195.54268,0.04328
2193.48307,0.04237
2191.42346,0.04234
2189.36385,0.04233
2187.30425,0.04205
2185.24464,0.04251
2183.18503,0.04322
2181.12542,0.04248
2179.06581,0.04083
2177.00620,0.03986
2174.94659,0.03986
2172.88699,0.04005
2170.82738,0.04028
2168.76777,0.04081
2166.70816,0.04150
2164.64855,0.04209
2162.58894,0.04068
2160.52934,0.03726
2158.46973,0.03543
2156.41012,0.03581
2154.35051,0.03707
2152.29090,0.03874
2150.23129,0.03973
2148.17168,0.04012
2146.11208,0.04024
2144.05247,0.04002
2141.99286,0.04030
2139.93325,0.04106
2137.87364,0.04162
2135.81403,0.04173
2133.75442,0.04106
2131.69482,0.04065
2129.63521,0.04158
2127.57560,0.04289
2125.51599,0.04383
2123.45638,0.04483
2121.39677,0.04580
2119.33716,0.04623
2117.27756,0.04620
2115.21795,0.04571
2113.15834,0.04515
2111.09873,0.04518
2109.03912,0.04526
2106.97951,0.04509
2104.91991,0.04477
2102.86030,0.04401
2100.80069,0.04325
2098.74108,0.04306
2096.68147,0.04297
2094.62186,0.04261
2092.56225,0.04245
2090.50265,0.04274
2088.44304,0.04302
2086.38343,0.04280
2084.32382,0.04210
2082.26421,0.04166
2080.20460,0.04218
2078.14499,0.04318
2076.08539,0.04369
2074.02578,0.04335
2071.96617,0.04254
2069.90656,0.04171
2067.84695,0.04102
2065.78734,0.04054
2063.72773,0.04043
2061.66813,0.04062
2059.60852,0.04055
2057.54891,0.04012
2055.48930,0.03978
2053.42969,0.03951
2051.37008,0.03874
2049.31048,0.03777
2047.25087,0.03745
2045.19126,0.03736
2043.13165,0.03707
2041.07204,0.03668
2039.01243,0.03617
2036.95282,0.03522
2034.89322,0.03437
2032.83361,0.03454
2030.77400,0.03466
2028.71439,0.03387
2026.65478,0.03299
2024.59517,0.03260
2022.53556,0.03252
2020.47596,0.03236
2018.41635,0.03250
2016.35674,0.03354
2014.29713,0.03417
2012.23752,0.03340
2010.17791,0.03255
2008.11830,0.03226
2006.05870,0.03217
2003.99909,0.03234
2001.93948,0.03251
1999.87987,0.03246
1997.82026,0.03271
1995.76065,0.03348
1993.70105,0.03374
1991.64144,0.03339
1989.58183,0.03289
1987.52222,0.03249
1985.46261,0.03304
1983.40300,0.03369
1981.34339,0.03271
1979.28379,0.03049
1977.22418,0.02878
1975.16457,0.02825
1973.10496,0.02837
1971.04535,0.02909
1968.98574,0.02981
1966.92613,0.02978
1964.86653,0.02994
1962.80692,0.03081
1960.74731,0.03105
1958.68770,0.03041
1956.62809,0.03029
1954.56848,0.03108
1952.50887,0.03168
1950.44927,0.03148
1948.38966,0.03146
1946.33005,0.03212
1944.27044,0.03263
1942.21083,0.03246
1940.15122,0.03196
1938.09162,0.03191
1936.03201,0.03218
1933.97240,0.03231
1931.91279,0.03229
1929.85318,0.03221
1927.79357,0.03230
1925.73396,0.03267
1923.67436,0.03292
1921.61475,0.03280
1919.55514,0.03267
1917.49553,0.03306
1915.43592,0.03360
1913.37631,0.03365
1911.31670,0.03329
1909.25710,0.03299
1907.19749,0.03290
1905.13788,0.03273
1903.07827,0.03268
1901.01866,0.03281
1898.95905,0.03271
1896.89944,0.03253
1894.83984,0.03252
1892.78023,0.03246
1890.72062,0.03237
1888.66101,0.03258
1886.60140,0.03296
1884.54179,0.03309
1882.48219,0.03281
1880.42258,0.03226
1878.36297,0.03192
1876.30336,0.03211
1874.24375,0.03226
1872.18414,0.03207
1870.12453,0.03195
1868.06493,0.03189
1866.00532,0.03179
1863.94571,0.03192
1861.88610,0.03211
1859.82649,0.03198
1857.76688,0.03170
1855.70727,0.03140
1853.64767,0.03118
1851.58806,0.03110
1849.52845,0.03101
1847.46884,0.03088
1845.40923,0.03081
1843.34962,0.03086
1841.29002,0.03082
1839.23041,0.03055
1837.17080,0.03027
1835.11119,0.03010
1833.05158,0.02995
1830.99197,0.02992
1828.93236,0.03008
1826.87276,0.03011
1824.81315,0.02992
1822.75354,0.02985
1820.69393,0.02992
1818.63432,0.02985
1816.57471,0.02963
1814.51510,0.02954
1812.45550,0.02957
1810.39589,0.02959
1808.33628,0.02955
1806.27667,0.02935
1804.21706,0.02925
1802.15745,0.02921
1800.09784,0.02890
1798.03824,0.02862
1795.97863,0.02861
1793.91902,0.02850
1791.85941,0.02837
1789.79980,0.02829
1787.74019,0.02815
1785.68059,0.02804
1783.62098,0.02806
1781.56137,0.02807
1779.50176,0.02787
1777.44215,0.02770
1775.38254,0.02762
1773.32293,0.02747
1771.26333,0.02734
1769.20372,0.02735
1767.14411,0.02730
1765.08450,0.02725
1763.02489,0.02724
1760.96528,0.02716
1758.90567,0.02698
1756.84607,0.02678
1754.78646,0.02673
1752.72685,0.02674
1750.66724,0.02664
1748.60763,0.02651
1746.54802,0.02653
1744.48841,0.02658
1742.42881,0.02651
1740.36920,0.02622
1738.30959,0.02604
1736.24998,0.02612
1734.19037,0.02635
1732.13076,0.02653
1730.07116,0.02651
1728.01155,0.02657
1725.95194,0.02673
1723.89233,0.02703
1721.83272,0.02739
1719.77311,0.02778
1717.71350,0.02842
1715.65390,0.02947
1713.59429,0.03071
1711.53468,0.03223
1709.47507,0.03422
1707.41546,0.03705
1705.35585,0.04113
1703.29624,0.04558
1701.23664,0.05133
1699.17703,0.05916
1697.11742,0.06694
1695.05781,0.07591
1692.99820,0.08474
1690.93859,0.09276
1688.87898,0.10095
1686.81938,0.10818
1684.75977,0.11623
1682.70016,0.12502
1680.64055,0.13145
1678.58094,0.13685
1676.52133,0.14292
1674.46173,0.15029
1672.40212,0.15718
1670.34251,0.16419
1668.28290,0.17228
1666.22329,0.17890
1664.16368,0.18498
1662.10407,0.19225
1660.04447,0.19908
1657.98486,0.20428
1655.92525,0.20834
1653.86564,0.21429
1651.80603,0.22263
1649.74642,0.22759
1647.68681,0.23279
1645.62721,0.24063
1643.56760,0.24743
1641.50799,0.25346
1639.44838,0.25982
1637.38877,0.26681
1635.32916,0.27562
1633.26955,0.28206
1631.20995,0.28392
1629.15034,0.28332
1627.09073,0.28069
1625.03112,0.27595
1622.97151,0.26938
1620.91190,0.26207
1618.85230,0.25467
1616.79269,0.24628
1614.73308,0.23771
1612.67347,0.22963
1610.61386,0.22129
1608.55425,0.21296
1606.49464,0.20506
1604.43504,0.19775
1602.37543,0.19120
1600.31582,0.18539
1598.25621,0.18034
1596.19660,0.17601
1594.13699,0.17210
1592.07738,0.16847
1590.01778,0.16515
1587.95817,0.16243
1585.89856,0.16041
1583.83895,0.15899
1581.77934,0.15817
1579.71973,0.15789
1577.66012,0.15835
1575.60052,0.16008
1573.54091,0.16208
1571.48130,0.16397
1569.42169,0.16696
1567.36208,0.17053
1565.30247,0.17398
1563.24287,0.17711
1561.18326,0.18007
1559.12365,0.18589
1557.06404,0.19295
1555.00443,0.19752
1552.94482,0.20198
1550.88521,0.20685
1548.82561,0.21161
1546.76600,0.21576
1544.70639,0.21959
1542.64678,0.22339
1540.58717,0.22797
1538.52756,0.23284
1536.46795,0.23546
1534.40835,0.23760
1532.34874,0.24040
1530.28913,0.24239
1528.22952,0.24360
1526.16991,0.24484
1524.11030,0.24610
1522.05069,0.24821
1519.99109,0.25144
1517.93148,0.25472
1515.87187,0.25742
1513.81226,0.25822
1511.75265,0.25685
1509.69304,0.25407
1507.63344,0.25009
1505.57383,0.24482
1503.51422,0.23909
1501.45461,0.23285
1499.39500,0.22566
1497.33539,0.21759
1495.27578,0.20914
1493.21618,0.20109
1491.15657,0.19287
1489.09696,0.18412
1487.03735,0.17604
1484.97774,0.16886
1482.91813,0.16234
1480.85852,0.15674
1478.79892,0.15261
1476.73931,0.14997
1474.67970,0.14878
1472.62009,0.14916
1470.56048,0.15008
1468.50087,0.15047
1466.44126,0.15065
1464.38166,0.15132
1462.32205,0.15226
1460.26244,0.15303
1458.20283,0.15416
1456.14322,0.15573
1454.08361,0.15619
1452.02401,0.15572
1449.96440,0.15510
1447.90479,0.15446
1445.84518,0.15361
1443.78557,0.15248
1441.72596,0.15114
1439.66635,0.14943
1437.60675,0.14705
1435.54714,0.14409
1433.48753,0.14123
1431.42792,0.13869
1429.36831,0.13665
1427.30870,0.13539
1425.24909,0.13497
1423.18949,0.13521
1421.12988,0.13586
1419.07027,0.13710
1417.01066,0.13862
1414.95105,0.13991
1412.89144,0.14122
1410.83183,0.14266
1408.77223,0.14403
1406.71262,0.14524
1404.65301,0.14647
1402.59340,0.14756
1400.53379,0.14842
1398.47418,0.14929
1396.41458,0.15021
1394.35497,0.15119
1392.29536,0.15195
1390.23575,0.15226
1388.17614,0.15237
1386.11653,0.15196
1384.05692,0.15041
1381.99732,0.14791
1379.93771,0.14502
1377.87810,0.14217
1375.81849,0.13952
1373.75888,0.13717
1371.69927,0.13517
1369.63966,0.13332
1367.58006,0.13125
1365.52045,0.12879
1363.46084,0.12632
1361.40123,0.12438
1359.34162,0.12300
1357.28201,0.12184
1355.22240,0.12069
1353.16280,0.11968
1351.10319,0.11906
1349.04358,0.11896
1346.98397,0.11925
1344.92436,0.11963
1342.86475,0.11986
1340.80515,0.11979
1338.74554,0.11942
1336.68593,0.11875
1334.62632,0.11774
1332.56671,0.11651
1330.50710,0.11531
1328.44749,0.11433
1326.38789,0.11375
1324.32828,0.11350
1322.26867,0.11340
1320.20906,0.11343
1318.14945,0.11362
1316.08984,0.11381
1314.03023,0.11389
1311.97063,0.11388
1309.91102,0.11386
1307.85141,0.11381
1305.79180,0.11362
1303.73219,0.11324
1301.67258,0.11265
1299.61297,0.11185
1297.55337,0.11104
1295.49376,0.11055
1293.43415,0.11045
1291.37454,0.11045
1289.31493,0.11039
1287.25532,0.11035
1285.19572,0.11034
1283.13611,0.11027
1281.07650,0.11026
1279.01689,0.11044
1276.95728,0.11088
1274.89767,0.11160
1272.83806,0.11245
1270.77846,0.11315
1268.71885,0.11367
1266.65924,0.11421
1264.59963,0.11487
1262.54002,0.11564
1260.48041,0.11650
1258.42080,0.11736
1256.36120,0.11822
1254.30159,0.11927
1252.24198,0.12062
1250.18237,0.12213
1248.12276,0.12365
1246.06315,0.12517
1244.00354,0.12655
1241.94394,0.12767
1239.88433,0.12865
1237.82472,0.12949
1235.76511,0.13001
1233.70550,0.13004
1231.64589,0.12948
1229.58629,0.12829
1227.52668,0.12661
1225.46707,0.12463
1223.40746,0.12242
1221.34785,0.12009
1219.28824,0.11771
1217.22863,0.11526
1215.16903,0.11283
1213.10942,0.11052
1211.04981,0.10844
1208.99020,0.10654
1206.93059,0.10474
1204.87098,0.10310
1202.81137,0.10167
1200.75177,0.10059
1198.69216,0.09997
1196.63255,0.09965
1194.57294,0.09957
1192.51333,0.09979
1190.45372,0.10026
1188.39411,0.10079
1186.33451,0.10131
1184.27490,0.10189
1182.21529,0.10272
1180.15568,0.10391
1178.09607,0.10538
1176.03646,0.10688
1173.97686,0.10827
1171.91725,0.10939
1169.85764,0.11013
1167.79803,0.11059
1165.73842,0.11109
1163.67881,0.11192
1161.61920,0.11310
1159.55960,0.11442
1157.49999,0.11572
1155.44038,0.11686
1153.38077,0.11763
1151.32116,0.11789
1149.26155,0.11755
1147.20194,0.11667
1145.14234,0.11553
1143.08273,0.11438
1141.02312,0.11345
1138.96351,0.11275
1136.90390,0.11219
1134.84429,0.11180
1132.78468,0.11161
1130.72508,0.11156
1128.66547,0.11159
1126.60586,0.11164
1124.54625,0.11157
1122.48664,0.11134
1120.42703,0.11102
1118.36743,0.11078
1116.30782,0.11058
1114.24821,0.11038
1112.18860,0.11032
1110.12899,0.11033
1108.06938,0.11039
1106.00977,0.11053
1103.95017,0.11062
1101.89056,0.11059
1099.83095,0.11056
1097.77134,0.11045
1095.71173,0.11020
1093.65212,0.10991
1091.59251,0.10962
1089.53291,0.10926
1087.47330,0.10894
1085.41369,0.10893
1083.35408,0.10920
1081.29447,0.10932
1079.23486,0.10908
1077.17525,0.10869
1075.11565,0.10811
1073.05604,0.10715
1070.99643,0.10598
1068.93682,0.10493
1066.87721,0.10401
1064.81760,0.10318
1062.75800,0.10238
1060.69839,0.10165
1058.63878,0.10106
1056.57917,0.10043
1054.51956,0.09964
1052.45995,0.09879
1050.40034,0.09792
1048.34074,0.09690
1046.28113,0.09562
1044.22152,0.09414
1042.16191,0.09259
1040.10230,0.09111
1038.04269,0.08968
1035.98308,0.08824
1033.92348,0.08689
1031.86387,0.08563
1029.80426,0.08426
1027.74465,0.08277
1025.68504,0.08131
1023.62543,0.07993
1021.56582,0.07865
1019.50622,0.07756
1017.44661,0.07663
1015.38700,0.07582
1013.32739,0.07509
1011.26778,0.07434
1009.20817,0.07355
1007.14857,0.07270
1005.08896,0.07175
1003.02935,0.07076
1000.96974,0.06985
998.91013,0.06903
996.85052,0.06822
994.79091,0.06739
992.73131,0.06654
990.67170,0.06580
988.61209,0.06521
986.55248,0.06475
984.49287,0.06435
982.43326,0.06399
980.37365,0.06373
978.31405,0.06348
976.25444,0.06314
974.19483,0.06273
972.13522,0.06223
970.07561,0.06171
968.01600,0.06127
965.95639,0.06088
963.89679,0.06047
961.83718,0.06009
959.77757,0.05980
957.71796,0.05956
955.65835,0.05924
953.59874,0.05881
951.53914,0.05837
949.47953,0.05801
947.41992,0.05777
945.36031,0.05768
943.30070,0.05769
941.24109,0.05775
939.18148,0.05789
937.12188,0.05804
935.06227,0.05810
933.00266,0.05806
930.94305,0.05794
928.88344,0.05777
926.82383,0.05757
924.76422,0.05729
922.70462,0.05692
920.64501,0.05649
918.58540,0.05599
916.52579,0.05547
914.46618,0.05507
912.40657,0.05472
910.34696,0.05438
908.28736,0.05412
906.22775,0.05401
904.16814,0.05404
902.10853,0.05410
900.04892,0.05404
897.98931,0.05391
895.92971,0.05381
893.87010,0.05370
891.81049,0.05360
889.75088,0.05346
887.69127,0.05329
885.63166,0.05312
883.57205,0.05295
881.51245,0.05279
879.45284,0.05266
877.39323,0.05252
875.33362,0.05239
873.27401,0.05213
871.21440,0.05173
869.15479,0.05150
867.09519,0.05149
865.03558,0.05152
862.97597,0.05160
860.91636,0.05183
858.85675,0.05213
856.79714,0.05248
854.73753,0.05289
852.67793,0.05320
850.61832,0.05343
848.55871,0.05371
846.49910,0.05389
844.43949,0.05391
842.37988,0.05407
840.32028,0.05439
838.26067,0.05474
836.20106,0.05512
834.14145,0.05554
832.08184,0.05593
830.02223,0.05616
827.96262,0.05617
825.90302,0.05609
823.84341,0.05601
821.78380,0.05597
819.72419,0.05598
817.66458,0.05601
815.60497,0.05626
813.54536,0.05685
811.48576,0.05744
809.42615,0.05780
807.36654,0.05819
805.30693,0.05865
803.24732,0.05894
801.18771,0.05902
799.12810,0.05916
797.06850,0.05942
795.00889,0.05961
792.94928,0.05985
790.88967,0.06026
788.83006,0.06078
786.77045,0.06135
784.71085,0.06184
782.65124,0.06216
780.59163,0.06255
778.53202,0.06302
776.47241,0.06326
774.41280,0.06332
772.35319,0.06346
770.29359,0.06377
768.23398,0.06421
766.17437,0.06468
764.11476,0.06507
762.05515,0.06545
759.99554,0.06598
757.93593,0.06657
755.87633,0.06710
753.81672,0.06759
751.75711,0.06812
749.69750,0.06884
747.63789,0.06968
745.57828,0.07063
743.51867,0.07165
741.45907,0.07237
739.39946,0.07255
737.33985,0.07236
735.28024,0.07211
733.22063,0.07195
731.16102,0.07194
729.10142,0.07222
727.04181,0.07272
724.98220,0.07310
722.92259,0.07343
720.86298,0.07389
718.80337,0.07433
716.74376,0.07473
714.68416,0.07517
712.62455,0.07575
710.56494,0.07647
708.50533,0.07720
706.44572,0.07799
704.38611,0.07879
702.32650,0.07944
700.26690,0.08005
698.20729,0.08075
696.14768,0.08133
694.08807,0.08167
692.02846,0.08192
689.96885,0.08226
687.90924,0.08268
685.84964,0.08308
683.79003,0.08340
681.73042,0.08376
679.67081,0.08426
677.61120,0.08485
675.55159,0.08534
673.49199,0.08569
671.43238,0.08600
669.37277,0.08663
667.31316,0.08785
665.25355,0.08879
663.19394,0.08952
661.13433,0.09031
659.07473,0.09075
657.01512,0.09069
654.95551,0.09048
652.89590,0.09030
650.83629,0.09001
648.77668,0.08952
646.71707,0.08909
644.65747,0.08899
642.59786,0.08891
640.53825,0.08865
638.47864,0.08848
636.41903,0.08854
634.35942,0.08865
632.29981,0.08870
630.24021,0.08877
628.18060,0.08893
626.12099,0.08931
624.06138,0.08985
622.00177,0.09027
619.94216,0.09052
617.88256,0.09073
615.82295,0.09093
613.76334,0.09114
611.70373,0.09133
609.64412,0.09151
607.58451,0.09183
605.52490,0.09244
603.46530,0.09353
601.40569,0.09502
599.34608,0.09614
597.28647,0.09637
595.22686,0.09588
593.16725,0.09499
591.10764,0.09413
589.04804,0.09356
586.98843,0.09320
584.92882,0.09295
582.86921,0.09266
580.80960,0.09220
578.74999,0.09176
576.69039,0.09165
574.63078,0.09169
572.57117,0.09161
570.51156,0.09147
568.45195,0.09143
566.39234,0.09155
564.33273,0.09166
562.27313,0.09162
560.21352,0.09142
558.15391,0.09111
556.09430,0.09088
554.03469,0.09084
551.97508,0.09081
549.91547,0.09074
547.85587,0.09082
545.79626,0.09092
543.73665,0.09089
541.67704,0.09076
539.61743,0.09044
537.55782,0.09025
535.49821,0.09029
533.43861,0.09010
531.37900,0.08968
529.31939,0.08938
527.25978,0.08920
525.20017,0.08904
523.14056,0.08875
521.08096,0.08834
519.02135,0.08801
516.96174,0.08791
514.90213,0.08797
512.84252,0.08774
510.78291,0.08729
508.72330,0.08693
506.66370,0.08657
504.60409,0.08618
502.54448,0.08578
500.48487,0.08544
498.42526,0.08529
496.36565,0.08516
494.30604,0.08507
492.24644,0.08512
490.18683,0.08516
488.12722,0.08484
486.06761,0.08431
484.00800,0.08407
481.94839,0.08381
479.88878,0.08318
477.82918,0.08270
475.76957,0.08262
473.70996,0.08248
471.65035,0.08184
469.59074,0.08114
467.53113,0.08077
465.47153,0.08038
463.41192,0.07998
461.35231,0.07993
459.29270,0.07986
457.23309,0.07961
455.17348,0.07935
453.11387,0.07873
451.05427,0.07787
448.99466,0.07703
446.93505,0.07638
444.87544,0.07625
442.81583,0.07635
440.75622,0.07614
438.69661,0.07565
436.63701,0.07511
434.57740,0.07453
432.51779,0.07412
430.45818,0.07429
428.39857,0.07470
426.33896,0.07475
424.27935,0.07413
422.21975,0.07296
420.16014,0.07209
418.10053,0.07209
416.04092,0.07175
413.98131,0.07064
411.92170,0.06989
409.86210,0.06975
407.80249,0.06933
405.74288,0.06858
403.68327,0.06786
401.62366,0.06695
399.56405,0.06576
