3997.70013,0.11835
3995.64052,0.11795
3993.58092,0.11687
3991.52131,0.11629
3989.46170,0.11638
3987.40209,0.11633
3985.34248,0.11567
3983.28287,0.11490
3981.22327,0.11485
3979.16366,0.11528
3977.10405,0.11562
3975.04444,0.11589
3972.98483,0.11589
3970.92522,0.11550
3968.86561,0.11526
3966.80601,0.11509
3964.74640,0.11465
3962.68679,0.11449
3960.62718,0.11472
3958.56757,0.11480
3956.50796,0.11472
3954.44835,0.11448
3952.38875,0.11414
3950.32914,0.11400
3948.26953,0.11383
3946.20992,0.11348
3944.15031,0.11333
3942.09070,0.11331
3940.03109,0.11316
3937.97149,0.11318
3935.91188,0.11343
3933.85227,0.11360
3931.79266,0.11383
3929.73305,0.11383
3927.67344,0.11289
3925.61384,0.11206
3923.55423,0.11251
3921.49462,0.11308
3919.43501,0.11272
3917.37540,0.11203
3915.31579,0.11172
3913.25618,0.11173
3911.19658,0.11180
3909.13697,0.11132
3907.07736,0.11048
3905.01775,0.11020
3902.95814,0.11003
3900.89853,0.10952
3898.83892,0.10992
3896.77932,0.11088
3894.71971,0.11087
3892.66010,0.11023
3890.60049,0.11022
3888.54088,0.11080
3886.48127,0.11095
3884.42166,0.11037
3882.36206,0.11000
3880.30245,0.11012
3878.24284,0.10992
3876.18323,0.10909
3874.12362,0.10818
3872.06401,0.10780
3870.00441,0.10807
3867.94480,0.10851
3865.88519,0.10823
3863.82558,0.10735
3861.76597,0.10714
3859.70636,0.10769
3857.64675,0.10807
3855.58715,0.10786
3853.52754,0.10728
3851.46793,0.10714
3849.40832,0.10736
3847.34871,0.10720
3845.28910,0.10633
3843.22949,0.10537
3841.16989,0.10485
3839.11028,0.10492
3837.05067,0.10579
3834.99106,0.10581
3832.93145,0.10479
3830.87184,0.10505
3828.81223,0.10621
3826.75263,0.10608
3824.69302,0.10466
3822.63341,0.10360
3820.57380,0.10437
3818.51419,0.10513
3816.45458,0.10421
3814.39498,0.10346
3812.33537,0.10376
3810.27576,0.10387
3808.21615,0.10335
3806.15654,0.10323
3804.09693,0.10346
3802.03732,0.10329
3799.97772,0.10305
3797.91811,0.10299
3795.85850,0.10295
3793.79889,0.10263
3791.73928,0.10227
3789.67967,0.10204
3787.62006,0.10166
3785.56046,0.10183
3783.50085,0.10271
3781.44124,0.10342
3779.38163,0.10363
3777.32202,0.10280
3775.26241,0.10128
3773.20280,0.10032
3771.14320,0.10050
3769.08359,0.10146
3767.02398,0.10189
3764.96437,0.10130
3762.90476,0.10035
3760.84515,0.09919
3758.78555,0.09816
3756.72594,0.09806
3754.66633,0.09872
3752.60672,0.09927
3750.54711,0.09890
3748.48750,0.09820
3746.42789,0.09807
3744.36829,0.09835
3742.30868,0.09826
3740.24907,0.09759
3738.18946,0.09682
3736.12985,0.09674
3734.07024,0.09764
3732.01063,0.09836
3729.95103,0.09825
3727.89142,0.09742
3725.83181,0.09646
3723.77220,0.09617
3721.71259,0.09661
3719.65298,0.09736
3717.59337,0.09780
3715.53377,0.09729
3713.47416,0.09618
3711.41455,0.09542
3709.35494,0.09560
3707.29533,0.09597
3705.23572,0.09544
3703.17612,0.09448
3701.11651,0.09434
3699.05690,0.09479
3696.99729,0.09511
3694.93768,0.09531
3692.87807,0.09509
3690.81846,0.09449
3688.75886,0.09433
3686.69925,0.09468
3684.63964,0.09451
3682.58003,0.09408
3680.52042,0.09408
3678.46081,0.09413
3676.40120,0.09429
3674.34160,0.09468
3672.28199,0.09486
3670.22238,0.09535
3668.16277,0.09554
3666.10316,0.09524
3664.04355,0.09570
3661.98394,0.09654
3659.92434,0.09659
3657.86473,0.09620
3655.80512,0.09626
3653.74551,0.09660
3651.68590,0.09686
3649.62629,0.09715
3647.56669,0.09737
3645.50708,0.09728
3643.44747,0.09774
3641.38786,0.09865
3639.32825,0.09869
3637.26864,0.09814
3635.20903,0.09810
3633.14943,0.09853
3631.08982,0.09933
3629.03021,0.10064
3626.97060,0.10098
3624.91099,0.10045
3622.85138,0.10086
3620.79177,0.10192
3618.73217,0.10212
3616.67256,0.10146
3614.61295,0.10152
3612.55334,0.10288
3610.49373,0.10392
3608.43412,0.10399
3606.37451,0.10415
3604.31491,0.10458
3602.25530,0.10569
3600.19569,0.10692
3598.13608,0.10708
3596.07647,0.10730
3594.01686,0.10844
3591.95726,0.10923
3589.89765,0.10911
3587.83804,0.10917
3585.77843,0.11018
3583.71882,0.11119
3581.65921,0.11177
3579.59960,0.11258
3577.54000,0.11350
3575.48039,0.11432
3573.42078,0.11549
3571.36117,0.11687
3569.30156,0.11792
3567.24195,0.11869
3565.18234,0.11974
3563.12274,0.12092
3561.06313,0.12153
3559.00352,0.12183
3556.94391,0.12265
3554.88430,0.12387
3552.82469,0.12480
3550.76508,0.12529
3548.70548,0.12590
3546.64587,0.12702
3544.58626,0.12804
3542.52665,0.12873
3540.46704,0.12981
3538.40743,0.13092
3536.34783,0.13142
3534.28822,0.13176
3532.22861,0.13248
3530.16900,0.13350
3528.10939,0.13443
3526.04978,0.13520
3523.99017,0.13627
3521.93057,0.13781
3519.87096,0.13942
3517.81135,0.14025
3515.75174,0.14014
3513.69213,0.14027
3511.63252,0.14106
3509.57291,0.14212
3507.51331,0.14336
3505.45370,0.14455
3503.39409,0.14556
3501.33448,0.14634
3499.27487,0.14693
3497.21526,0.14765
3495.15565,0.14861
3493.09605,0.14967
3491.03644,0.15069
3488.97683,0.15133
3486.91722,0.15193
3484.85761,0.15275
3482.79800,0.15338
3480.73840,0.15412
3478.67879,0.15535
3476.61918,0.15678
3474.55957,0.15804
3472.49996,0.15904
3470.44035,0.15984
3468.38074,0.16060
3466.32114,0.16171
3464.26153,0.16306
3462.20192,0.16416
3460.14231,0.16530
3458.08270,0.16645
3456.02309,0.16719
3453.96348,0.16779
3451.90388,0.16894
3449.84427,0.17071
3447.78466,0.17224
3445.72505,0.17303
3443.66544,0.17346
3441.60583,0.17426
3439.54622,0.17586
3437.48662,0.17775
3435.42701,0.17946
3433.36740,0.18100
3431.30779,0.18215
3429.24818,0.18314
3427.18857,0.18418
3425.12897,0.18539
3423.06936,0.18720
3421.00975,0.18885
3418.95014,0.18955
3416.89053,0.18989
3414.83092,0.19041
3412.77131,0.19127
3410.71171,0.19261
3408.65210,0.19439
3406.59249,0.19629
3404.53288,0.19771
3402.47327,0.19838
3400.41366,0.19897
3398.35405,0.20003
3396.29445,0.20139
3394.23484,0.20270
3392.17523,0.20378
3390.11562,0.20490
3388.05601,0.20610
3385.99640,0.20698
3383.93679,0.20786
3381.87719,0.20908
3379.81758,0.21039
3377.75797,0.21147
3375.69836,0.21251
3373.63875,0.21411
3371.57914,0.21642
3369.51954,0.21921
3367.45993,0.22214
3365.40032,0.22475
3363.34071,0.22725
3361.28110,0.22981
3359.22149,0.23187
3357.16188,0.23338
3355.10228,0.23505
3353.04267,0.23716
3350.98306,0.23949
3348.92345,0.24229
3346.86384,0.24569
3344.80423,0.24900
3342.74462,0.25214
3340.68502,0.25551
3338.62541,0.25866
3336.56580,0.26123
3334.50619,0.26407
3332.44658,0.26750
3330.38697,0.27062
3328.32736,0.27362
3326.26776,0.27734
3324.20815,0.28131
3322.14854,0.28480
3320.08893,0.28806
3318.02932,0.29131
3315.96971,0.29429
3313.91011,0.29733
3311.85050,0.30083
3309.79089,0.30446
3307.73128,0.30797
3305.67167,0.31116
3303.61206,0.31381
3301.55245,0.31631
3299.49285,0.31888
3297.43324,0.32085
3295.37363,0.32210
3293.31402,0.32375
3291.25441,0.32554
3289.19480,0.32686
3287.13519,0.32823
3285.07559,0.32919
3283.01598,0.32926
3280.95637,0.32881
3278.89676,0.32802
3276.83715,0.32711
3274.77754,0.32619
3272.71793,0.32504
3270.65833,0.32347
3268.59872,0.32139
3266.53911,0.31862
3264.47950,0.31558
3262.41989,0.31281
3260.36028,0.30981
3258.30068,0.30660
3256.24107,0.30387
3254.18146,0.30173
3252.12185,0.30001
3250.06224,0.29748
3248.00263,0.29365
3245.94302,0.28983
3243.88342,0.28700
3241.82381,0.28526
3239.76420,0.28421
3237.70459,0.28287
3235.64498,0.28112
3233.58537,0.27951
3231.52576,0.27768
3229.46616,0.27578
3227.40655,0.27426
3225.34694,0.27294
3223.28733,0.27192
3221.22772,0.27123
3219.16811,0.27048
3217.10850,0.26925
3215.04890,0.26783
3212.98929,0.26668
3210.92968,0.26559
3208.87007,0.26439
3206.81046,0.26331
3204.75085,0.26268
3202.69125,0.26217
3200.63164,0.26094
3198.57203,0.25919
3196.51242,0.25786
3194.45281,0.25686
3192.39320,0.25546
3190.33359,0.25383
3188.27399,0.25256
3186.21438,0.25125
3184.15477,0.24961
3182.09516,0.24806
3180.03555,0.24669
3177.97594,0.24515
3175.91633,0.24345
3173.85673,0.24174
3171.79712,0.24002
3169.73751,0.23848
3167.67790,0.23729
3165.61829,0.23612
3163.55868,0.23463
3161.49907,0.23306
3159.43947,0.23158
3157.37986,0.23001
3155.32025,0.22832
3153.26064,0.22655
3151.20103,0.22476
3149.14142,0.22316
3147.08182,0.22166
3145.02221,0.22034
3142.96260,0.21959
3140.90299,0.21895
3138.84338,0.21800
3136.78377,0.21689
3134.72416,0.21554
3132.66456,0.21427
3130.60495,0.21350
3128.54534,0.21286
3126.48573,0.21182
3124.42612,0.21090
3122.36651,0.21075
3120.30690,0.21071
3118.24730,0.21011
3116.18769,0.20923
3114.12808,0.20851
3112.06847,0.20829
3110.00886,0.20841
3107.94925,0.20826
3105.88965,0.20788
3103.83004,0.20772
3101.77043,0.20792
3099.71082,0.20855
3097.65121,0.20925
3095.59160,0.20976
3093.53199,0.21033
3091.47239,0.21100
3089.41278,0.21162
3087.35317,0.21237
3085.29356,0.21314
3083.23395,0.21366
3081.17434,0.21427
3079.11473,0.21485
3077.05513,0.21473
3074.99552,0.21438
3072.93591,0.21452
3070.87630,0.21462
3068.81669,0.21429
3066.75708,0.21375
3064.69747,0.21328
3062.63787,0.21318
3060.57826,0.21325
3058.51865,0.21308
3056.45904,0.21233
3054.39943,0.21087
3052.33982,0.20932
3050.28022,0.20815
3048.22061,0.20716
3046.16100,0.20615
3044.10139,0.20513
3042.04178,0.20415
3039.98217,0.20316
3037.92256,0.20191
3035.86296,0.20050
3033.80335,0.19928
3031.74374,0.19835
3029.68413,0.19714
3027.62452,0.19524
3025.56491,0.19329
3023.50530,0.19197
3021.44570,0.19119
3019.38609,0.19023
3017.32648,0.18895
3015.26687,0.18787
3013.20726,0.18686
3011.14765,0.18559
3009.08804,0.18436
3007.02844,0.18331
3004.96883,0.18221
3002.90922,0.18150
3000.84961,0.18151
2998.79000,0.18169
2996.73039,0.18184
2994.67079,0.18228
2992.61118,0.18312
2990.55157,0.18415
2988.49196,0.18559
2986.43235,0.18780
2984.37274,0.19080
2982.31313,0.19441
2980.25353,0.19820
2978.19392,0.20229
2976.13431,0.20687
2974.07470,0.21191
2972.01509,0.21771
2969.95548,0.22390
2967.89587,0.22949
2965.83627,0.23393
2963.77666,0.23732
2961.71705,0.23978
2959.65744,0.24071
2957.59783,0.23969
2955.53822,0.23715
2953.47861,0.23369
2951.41901,0.22981
2949.35940,0.22658
2947.29979,0.22453
2945.24018,0.22351
2943.18057,0.22347
2941.12096,0.22437
2939.06136,0.22598
2937.00175,0.22782
2934.94214,0.22932
2932.88253,0.23009
2930.82292,0.23010
2928.76331,0.22939
2926.70370,0.22795
2924.64410,0.22588
2922.58449,0.22342
2920.52488,0.22091
2918.46527,0.21870
2916.40566,0.21676
2914.34605,0.21467
2912.28644,0.21210
2910.22684,0.20899
2908.16723,0.20567
2906.10762,0.20295
2904.04801,0.20120
2901.98840,0.19960
2899.92879,0.19750
2897.86918,0.19504
2895.80958,0.19252
2893.74997,0.19045
2891.69036,0.18908
2889.63075,0.18809
2887.57114,0.18739
2885.51153,0.18727
2883.45193,0.18787
2881.39232,0.18941
2879.33271,0.19170
2877.27310,0.19389
2875.21349,0.19542
2873.15388,0.19596
2871.09427,0.19534
2869.03467,0.19380
2866.97506,0.19143
2864.91545,0.18806
2862.85584,0.18429
2860.79623,0.18103
2858.73662,0.17846
2856.67701,0.17623
2854.61741,0.17393
2852.55780,0.17149
2850.49819,0.16920
2848.43858,0.16707
2846.37897,0.16520
2844.31936,0.16350
2842.25975,0.16159
2840.20015,0.15966
2838.14054,0.15817
2836.08093,0.15720
2834.02132,0.15637
2831.96171,0.15538
2829.90210,0.15434
2827.84250,0.15337
2825.78289,0.15233
2823.72328,0.15133
2821.66367,0.15073
2819.60406,0.15044
2817.54445,0.14999
2815.48484,0.14920
2813.42524,0.14847
2811.36563,0.14790
2809.30602,0.14718
2807.24641,0.14638
2805.18680,0.14591
2803.12719,0.14562
2801.06758,0.14506
2799.00798,0.14423
2796.94837,0.14342
2794.88876,0.14281
2792.82915,0.14234
2790.76954,0.14195
2788.70993,0.14144
2786.65032,0.14061
2784.59072,0.13978
2782.53111,0.13920
2780.47150,0.13872
2778.41189,0.13836
2776.35228,0.13805
2774.29267,0.13751
2772.23307,0.13681
2770.17346,0.13621
2768.11385,0.13560
2766.05424,0.13488
2763.99463,0.13424
2761.93502,0.13374
2759.87541,0.13332
2757.81581,0.13301
2755.75620,0.13266
2753.69659,0.13205
2751.63698,0.13126
2749.57737,0.13053
2747.51776,0.12991
2745.45815,0.12942
2743.39855,0.12907
2741.33894,0.12866
2739.27933,0.12812
2737.21972,0.12762
2735.16011,0.12719
2733.10050,0.12673
2731.04089,0.12605
2728.98129,0.12536
2726.92168,0.12522
2724.86207,0.12523
2722.80246,0.12449
2720.74285,0.12336
2718.68324,0.12267
2716.62364,0.12227
2714.56403,0.12169
2712.50442,0.12115
2710.44481,0.12074
2708.38520,0.12024
2706.32559,0.11982
2704.26598,0.11957
2702.20638,0.11922
2700.14677,0.11870
2698.08716,0.11811
2696.02755,0.11761
2693.96794,0.11736
2691.90833,0.11706
2689.84872,0.11650
2687.78912,0.11605
2685.72951,0.11568
2683.66990,0.11537
2681.61029,0.11513
2679.55068,0.11485
2677.49107,0.11445
2675.43146,0.11406
2673.37186,0.11383
2671.31225,0.11351
2669.25264,0.11310
2667.19303,0.11297
2665.13342,0.11310
2663.07381,0.11314
2661.01421,0.11291
2658.95460,0.11240
2656.89499,0.11189
2654.83538,0.11158
2652.77577,0.11124
2650.71616,0.11075
2648.65655,0.11039
2646.59695,0.11011
2644.53734,0.10957
2642.47773,0.10882
2640.41812,0.10831
2638.35851,0.10810
2636.29890,0.10778
2634.23929,0.10733
2632.17969,0.10681
2630.12008,0.10624
2628.06047,0.10571
2626.00086,0.10524
2623.94125,0.10487
2621.88164,0.10442
2619.82203,0.10368
2617.76243,0.10297
2615.70282,0.10268
2613.64321,0.10280
2611.58360,0.10275
2609.52399,0.10232
2607.46438,0.10180
2605.40478,0.10113
2603.34517,0.10041
2601.28556,0.09974
2599.22595,0.09920
2597.16634,0.09915
2595.10673,0.09926
2593.04712,0.09880
2590.98752,0.09789
2588.92791,0.09743
2586.86830,0.09757
2584.80869,0.09752
2582.74908,0.09686
2580.68947,0.09606
2578.62986,0.09568
2576.57026,0.09545
2574.51065,0.09511
2572.45104,0.09491
2570.39143,0.09450
2568.33182,0.09387
2566.27221,0.09380
2564.21260,0.09388
2562.15300,0.09348
2560.09339,0.09322
2558.03378,0.09313
2555.97417,0.09240
2553.91456,0.09140
2551.85495,0.09118
2549.79535,0.09157
2547.73574,0.09163
2545.67613,0.09129
2543.61652,0.09106
2541.55691,0.09078
2539.49730,0.09040
2537.43769,0.09019
2535.37809,0.09000
2533.31848,0.08981
2531.25887,0.08976
2529.19926,0.08971
2527.13965,0.08952
2525.08004,0.08918
2523.02043,0.08885
2520.96083,0.08854
2518.90122,0.08831
2516.84161,0.08832
2514.78200,0.08819
2512.72239,0.08767
2510.66278,0.08703
2508.60317,0.08671
2506.54357,0.08657
2504.48396,0.08629
2502.42435,0.08621
2500.36474,0.08637
2498.30513,0.08624
2496.24552,0.08571
2494.18592,0.08529
2492.12631,0.08528
2490.06670,0.08531
2488.00709,0.08485
2485.94748,0.08424
2483.88787,0.08394
2481.82826,0.08367
2479.76866,0.08333
2477.70905,0.08314
2475.64944,0.08304
2473.58983,0.08282
2471.53022,0.08254
2469.47061,0.08222
2467.41100,0.08201
2465.35140,0.08200
2463.29179,0.08166
2461.23218,0.08094
2459.17257,0.08057
2457.11296,0.08074
2455.05335,0.08089
2452.99374,0.08071
2450.93414,0.08034
2448.87453,0.08001
2446.81492,0.07978
2444.75531,0.07948
2442.69570,0.07893
2440.63609,0.07851
2438.57649,0.07854
2436.51688,0.07864
2434.45727,0.07850
2432.39766,0.07817
2430.33805,0.07772
2428.27844,0.07746
2426.21883,0.07745
2424.15923,0.07741
2422.09962,0.07721
2420.04001,0.07690
2417.98040,0.07656
2415.92079,0.07622
2413.86118,0.07612
2411.80157,0.07634
2409.74197,0.07617
2407.68236,0.07550
2405.62275,0.07531
2403.56314,0.07550
2401.50353,0.07527
2399.44392,0.07467
2397.38431,0.07423
2395.32471,0.07400
2393.26510,0.07370
2391.20549,0.07355
2389.14588,0.07381
2387.08627,0.07416
2385.02666,0.07427
2382.96706,0.07424
2380.90745,0.07406
2378.84784,0.07356
2376.78823,0.07307
2374.72862,0.07294
2372.66901,0.07286
2370.60940,0.07257
2368.54980,0.07233
2366.49019,0.07213
2364.43058,0.07170
2362.37097,0.07154
2360.31136,0.07215
2358.25175,0.07282
2356.19214,0.07306
2354.13254,0.07333
2352.07293,0.07350
2350.01332,0.07313
2347.95371,0.07254
2345.89410,0.07216
2343.83449,0.07199
2341.77488,0.07170
2339.71528,0.07140
2337.65567,0.07145
2335.59606,0.07143
2333.53645,0.07130
2331.47684,0.07144
2329.41723,0.07173
2327.35763,0.07197
2325.29802,0.07199
2323.23841,0.07170
2321.17880,0.07112
2319.11919,0.07019
2317.05958,0.06938
2314.99997,0.06932
2312.94037,0.06944
2310.88076,0.06906
2308.82115,0.06844
2306.76154,0.06786
2304.70193,0.06748
2302.64232,0.06712
2300.58271,0.06665
2298.52311,0.06639
2296.46350,0.06629
2294.40389,0.06624
2292.34428,0.06623
2290.28467,0.06596
2288.22506,0.06531
2286.16545,0.06466
2284.10585,0.06447
2282.04624,0.06464
2279.98663,0.06455
2277.92702,0.06367
2275.86741,0.06219
2273.80780,0.06130
2271.74820,0.06143
2269.68859,0.06165
2267.62898,0.06133
2265.56937,0.06081
2263.50976,0.06045
2261.45015,0.05994
2259.39054,0.05931
2257.33094,0.05879
2255.27133,0.05819
2253.21172,0.05770
2251.15211,0.05754
2249.09250,0.05758
2247.03289,0.05775
2244.97328,0.05766
2242.91368,0.05747
2240.85407,0.05778
2238.79446,0.05770
2236.73485,0.05701
2234.67524,0.05659
2232.61563,0.05610
2230.55602,0.05545
2228.49642,0.05476
2226.43681,0.05415
2224.37720,0.05376
2222.31759,0.05343
2220.25798,0.05365
2218.19837,0.05415
2216.13877,0.05382
2214.07916,0.05284
2212.01955,0.05253
2209.95994,0.05293
2207.90033,0.05286
2205.84072,0.05264
2203.78111,0.05296
2201.72151,0.05286
2199.66190,0.05142
2197.60229,0.04960
2195.54268,0.04900
2193.48307,0.04980
2191.42346,0.05073
2189.36385,0.05121
2187.30425,0.05164
2185.24464,0.05138
2183.18503,0.04962
2181.12542,0.04773
2179.06581,0.04703
2177.00620,0.04662
2174.94659,0.04640
2172.88699,0.04664
2170.82738,0.04619
2168.76777,0.04573
2166.70816,0.04625
2164.64855,0.04588
2162.58894,0.04407
2160.52934,0.04212
2158.46973,0.04059
2156.41012,0.04086
2154.35051,0.04316
2152.29090,0.04536
2150.23129,0.04572
2148.17168,0.04530
2146.11208,0.04534
2144.05247,0.04547
2141.99286,0.04621
2139.93325,0.04717
2137.87364,0.04707
2135.81403,0.04676
2133.75442,0.04727
2131.69482,0.04830
2129.63521,0.04933
2127.57560,0.04989
2125.51599,0.05005
2123.45638,0.05012
2121.39677,0.05040
2119.33716,0.05082
2117.27756,0.05105
2115.21795,0.05110
2113.15834,0.05103
2111.09873,0.05091
2109.03912,0.05075
2106.97951,0.05053
2104.91991,0.05038
2102.86030,0.05039
2100.80069,0.05035
2098.74108,0.04979
2096.68147,0.04872
2094.62186,0.04799
2092.56225,0.04812
2090.50265,0.04868
2088.44304,0.04889
2086.38343,0.04835
2084.32382,0.04801
2082.26421,0.04841
2080.20460,0.04863
2078.14499,0.04837
2076.08539,0.04819
2074.02578,0.04827
2071.96617,0.04780
2069.90656,0.04685
2067.84695,0.04647
2065.78734,0.04598
2063.72773,0.04499
2061.66813,0.04456
2059.60852,0.04485
2057.54891,0.04520
2055.48930,0.04463
2053.42969,0.04338
2051.37008,0.04268
2049.31048,0.04230
2047.25087,0.04167
2045.19126,0.04081
2043.13165,0.03992
2041.07204,0.03957
2039.01243,0.03987
2036.95282,0.03989
2034.89322,0.03901
2032.83361,0.03819
2030.77400,0.03777
2028.71439,0.03699
2026.65478,0.03601
2024.59517,0.03542
2022.53556,0.03560
2020.47596,0.03649
2018.41635,0.03720
2016.35674,0.03701
2014.29713,0.03621
2012.23752,0.03570
2010.17791,0.03640
2008.11830,0.03732
2006.05870,0.03752
2003.99909,0.03786
2001.93948,0.03803
1999.87987,0.03751
1997.82026,0.03676
1995.76065,0.03637
1993.70105,0.03645
1991.64144,0.03670
1989.58183,0.03692
1987.52222,0.03663
1985.46261,0.03570
1983.40300,0.03507
1981.34339,0.03540
1979.28379,0.03562
1977.22418,0.03477
1975.16457,0.03411
1973.10496,0.03444
1971.04535,0.03500
1968.98574,0.03533
1966.92613,0.03553
1964.86653,0.03521
1962.80692,0.03395
1960.74731,0.03279
1958.68770,0.03296
1956.62809,0.03398
1954.56848,0.03508
1952.50887,0.03602
1950.44927,0.03656
1948.38966,0.03670
1946.33005,0.03629
1944.27044,0.03561
1942.21083,0.03533
1940.15122,0.03535
1938.09162,0.03552
1936.03201,0.03588
1933.97240,0.03627
1931.91279,0.03652
1929.85318,0.03661
1927.79357,0.03662
1925.73396,0.03657
1923.67436,0.03652
1921.61475,0.03634
1919.55514,0.03607
1917.49553,0.03632
1915.43592,0.03689
1913.37631,0.03673
1911.31670,0.03596
1909.25710,0.03536
1907.19749,0.03517
1905.13788,0.03500
1903.07827,0.03460
1901.01866,0.03441
1898.95905,0.03482
1896.89944,0.03514
1894.83984,0.03534
1892.78023,0.03574
1890.72062,0.03577
1888.66101,0.03536
1886.60140,0.03509
1884.54179,0.03517
1882.48219,0.03510
1880.42258,0.03476
1878.36297,0.03467
1876.30336,0.03456
1874.24375,0.03411
1872.18414,0.03393
1870.12453,0.03406
1868.06493,0.03419
1866.00532,0.03404
1863.94571,0.03350
1861.88610,0.03314
1859.82649,0.03326
1857.76688,0.03338
1855.70727,0.03342
1853.64767,0.03349
1851.58806,0.03351
1849.52845,0.03348
1847.46884,0.03341
1845.40923,0.03333
1843.34962,0.03313
1841.29002,0.03292
1839.23041,0.03272
1837.17080,0.03250
1835.11119,0.03239
1833.05158,0.03230
1830.99197,0.03222
1828.93236,0.03226
1826.87276,0.03228
1824.81315,0.03225
1822.75354,0.03230
1820.69393,0.03218
1818.63432,0.03186
1816.57471,0.03150
1814.51510,0.03136
1812.45550,0.03148
1810.39589,0.03154
1808.33628,0.03137
1806.27667,0.03128
1804.21706,0.03131
1802.15745,0.03120
1800.09784,0.03109
1798.03824,0.03108
1795.97863,0.03110
1793.91902,0.03108
1791.85941,0.03111
1789.79980,0.03097
1787.74019,0.03058
1785.68059,0.03033
1783.62098,0.03026
1781.56137,0.03011
1779.50176,0.02996
1777.44215,0.03004
1775.38254,0.03015
1773.32293,0.03013
1771.26333,0.02994
1769.20372,0.02975
1767.14411,0.02964
1765.08450,0.02964
1763.02489,0.02966
1760.96528,0.02967
1758.90567,0.02962
1756.84607,0.02958
1754.78646,0.02971
1752.72685,0.02973
1750.66724,0.02975
1748.60763,0.02982
1746.54802,0.02983
1744.48841,0.02987
1742.42881,0.03014
1740.36920,0.03048
1738.30959,0.03068
1736.24998,0.03080
1734.19037,0.03121
1732.13076,0.03181
1730.07116,0.03222
1728.01155,0.03265
1725.95194,0.03306
1723.89233,0.03364
1721.83272,0.03425
1719.77311,0.03497
1717.71350,0.03629
1715.65390,0.03829
1713.59429,0.04041
1711.53468,0.04281
1709.47507,0.04589
1707.41546,0.05005
1705.35585,0.05551
1703.29624,0.06113
1701.23664,0.06878
1699.17703,0.07995
1697.11742,0.09133
1695.05781,0.10444
1692.99820,0.11776
1690.93859,0.13040
1688.87898,0.14372
1686.81938,0.15562
1684.75977,0.16826
1682.70016,0.18159
1680.64055,0.19133
1678.58094,0.19966
1676.52133,0.20923
1674.46173,0.22076
1672.40212,0.23138
1670.34251,0.24191
1668.28290,0.25421
1666.22329,0.26505
1664.16368,0.27557
1662.10407,0.28859
1660.04447,0.30229
1657.98486,0.31510
1655.92525,0.32745
1653.86564,0.34558
1651.80603,0.36949
1649.74642,0.38436
1647.68681,0.39848
1645.62721,0.41748
1643.56760,0.43303
1641.50799,0.44426
1639.44838,0.45265
1637.38877,0.45718
1635.32916,0.45664
1633.26955,0.44984
1631.20995,0.43838
1629.15034,0.42302
1627.09073,0.40494
1625.03112,0.38549
1622.97151,0.36430
1620.91190,0.34423
1618.85230,0.32632
1616.79269,0.30679
1614.73308,0.28820
1612.67347,0.27335
1610.61386,0.25979
1608.55425,0.24714
1606.49464,0.23619
1604.43504,0.22704
1602.37543,0.21925
1600.31582,0.21266
1598.25621,0.20731
1596.19660,0.20314
1594.13699,0.19995
1592.07738,0.19771
1590.01778,0.19622
1587.95817,0.19555
1585.89856,0.19575
1583.83895,0.19665
1581.77934,0.19807
1579.71973,0.19988
1577.66012,0.20248
1575.60052,0.20675
1573.54091,0.21113
1571.48130,0.21523
1569.42169,0.22106
1567.36208,0.22754
1565.30247,0.23379
1563.24287,0.24000
1561.18326,0.24635
1559.12365,0.25751
1557.06404,0.27123
1555.00443,0.28144
1552.94482,0.29183
1550.88521,0.30305
1548.82561,0.31438
1546.76600,0.32440
1544.70639,0.33314
1542.64678,0.34124
1540.58717,0.34955
1538.52756,0.35661
1536.46795,0.35936
1534.40835,0.36053
1532.34874,0.36191
1530.28913,0.36234
1528.22952,0.36169
1526.16991,0.36045
1524.11030,0.35859
1522.05069,0.35641
1519.99109,0.35431
1517.93148,0.35213
1515.87187,0.34922
1513.81226,0.34491
1511.75265,0.33892
1509.69304,0.33171
1507.63344,0.32266
1505.57383,0.31185
1503.51422,0.30231
1501.45461,0.29304
1499.39500,0.28257
1497.33539,0.27051
1495.27578,0.25757
1493.21618,0.24556
1491.15657,0.23336
1489.09696,0.21995
1487.03735,0.20751
1484.97774,0.19710
1482.91813,0.18827
1480.85852,0.18084
1478.79892,0.17548
1476.73931,0.17257
1474.67970,0.17201
1472.62009,0.17350
1470.56048,0.17529
1468.50087,0.17591
1466.44126,0.17580
1464.38166,0.17583
1462.32205,0.17609
1460.26244,0.17641
1458.20283,0.17747
1456.14322,0.17957
1454.08361,0.18076
1452.02401,0.18085
1449.96440,0.18062
1447.90479,0.18035
1445.84518,0.17990
1443.78557,0.17894
1441.72596,0.17738
1439.66635,0.17529
1437.60675,0.17230
1435.54714,0.16818
1433.48753,0.16371
1431.42792,0.15926
1429.36831,0.15522
1427.30870,0.15232
1425.24909,0.15065
1423.18949,0.15009
1421.12988,0.15054
1419.07027,0.15201
1417.01066,0.15390
1414.95105,0.15561
1412.89144,0.15762
1410.83183,0.16051
1408.77223,0.16442
1406.71262,0.16932
1404.65301,0.17529
1402.59340,0.18140
1400.53379,0.18709
1398.47418,0.19256
1396.41458,0.19721
1394.35497,0.20103
1392.29536,0.20394
1390.23575,0.20566
1388.17614,0.20628
1386.11653,0.20512
1384.05692,0.20160
1381.99732,0.19618
1379.93771,0.18977
1377.87810,0.18323
1375.81849,0.17696
1373.75888,0.17129
1371.69927,0.16678
1369.63966,0.16303
1367.58006,0.15890
1365.52045,0.15416
1363.46084,0.14945
1361.40123,0.14562
1359.34162,0.14298
1357.28201,0.14112
1355.22240,0.13969
1353.16280,0.13868
1351.10319,0.13808
1349.04358,0.13770
1346.98397,0.13748
1344.92436,0.13742
1342.86475,0.13740
1340.80515,0.13718
1338.74554,0.13670
1336.68593,0.13596
1334.62632,0.13501
1332.56671,0.13404
1330.50710,0.13335
1328.44749,0.13312
1326.38789,0.13353
1324.32828,0.13469
1322.26867,0.13655
1320.20906,0.13892
1318.14945,0.14142
1316.08984,0.14369
1314.03023,0.14548
1311.97063,0.14656
1309.91102,0.14694
1307.85141,0.14687
1305.79180,0.14655
1303.73219,0.14592
1301.67258,0.14499
1299.61297,0.14397
1297.55337,0.14306
1295.49376,0.14226
1293.43415,0.14155
1291.37454,0.14095
1289.31493,0.14055
1287.25532,0.14030
1285.19572,0.14001
1283.13611,0.13961
1281.07650,0.13905
1279.01689,0.13826
1276.95728,0.13727
1274.89767,0.13611
1272.83806,0.13493
1270.77846,0.13395
1268.71885,0.13324
1266.65924,0.13273
1264.59963,0.13236
1262.54002,0.13210
1260.48041,0.13199
1258.42080,0.13214
1256.36120,0.13256
1254.30159,0.13329
1252.24198,0.13436
1250.18237,0.13556
1248.12276,0.13656
1246.06315,0.13730
1244.00354,0.13787
1241.94394,0.13836
1239.88433,0.13870
1237.82472,0.13871
1235.76511,0.13840
1233.70550,0.13784
1231.64589,0.13706
1229.58629,0.13607
1227.52668,0.13482
1225.46707,0.13323
1223.40746,0.13129
1221.34785,0.12905
1219.28824,0.12658
1217.22863,0.12401
1215.16903,0.12139
1213.10942,0.11865
1211.04981,0.11579
1208.99020,0.11299
1206.93059,0.11032
1204.87098,0.10758
1202.81137,0.10487
1200.75177,0.10236
1198.69216,0.10011
1196.63255,0.09824
1194.57294,0.09683
1192.51333,0.09579
1190.45372,0.09502
1188.39411,0.09439
1186.33451,0.09390
1184.27490,0.09368
1182.21529,0.09377
1180.15568,0.09414
1178.09607,0.09480
1176.03646,0.09580
1173.97686,0.09707
1171.91725,0.09812
1169.85764,0.09863
1167.79803,0.09870
1165.73842,0.09855
1163.67881,0.09827
1161.61920,0.09793
1159.55960,0.09765
1157.49999,0.09739
1155.44038,0.09688
1153.38077,0.09611
1151.32116,0.09521
1149.26155,0.09422
1147.20194,0.09320
1145.14234,0.09221
1143.08273,0.09133
1141.02312,0.09063
1138.96351,0.09017
1136.90390,0.09003
1134.84429,0.09003
1132.78468,0.08991
1130.72508,0.08980
1128.66547,0.08984
1126.60586,0.08974
1124.54625,0.08930
1122.48664,0.08872
1120.42703,0.08828
1118.36743,0.08796
1116.30782,0.08763
1114.24821,0.08731
1112.18860,0.08709
1110.12899,0.08696
1108.06938,0.08663
1106.00977,0.08601
1103.95017,0.08534
1101.89056,0.08474
1099.83095,0.08399
1097.77134,0.08313
1095.71173,0.08236
1093.65212,0.08172
1091.59251,0.08126
1089.53291,0.08112
1087.47330,0.08117
1085.41369,0.08116
1083.35408,0.08108
1081.29447,0.08083
1079.23486,0.08019
1077.17525,0.07922
1075.11565,0.07805
1073.05604,0.07680
1070.99643,0.07550
1068.93682,0.07411
1066.87721,0.07269
1064.81760,0.07138
1062.75800,0.07035
1060.69839,0.06957
1058.63878,0.06880
1056.57917,0.06800
1054.51956,0.06735
1052.45995,0.06672
1050.40034,0.06598
1048.34074,0.06511
1046.28113,0.06423
1044.22152,0.06343
1042.16191,0.06280
1040.10230,0.06227
1038.04269,0.06170
1035.98308,0.06127
1033.92348,0.06122
1031.86387,0.06139
1029.80426,0.06154
1027.74465,0.06152
1025.68504,0.06129
1023.62543,0.06091
1021.56582,0.06055
1019.50622,0.06021
1017.44661,0.05975
1015.38700,0.05920
1013.32739,0.05862
1011.26778,0.05787
1009.20817,0.05700
1007.14857,0.05605
1005.08896,0.05502
1003.02935,0.05409
1000.96974,0.05343
998.91013,0.05291
996.85052,0.05233
994.79091,0.05169
992.73131,0.05102
990.67170,0.05047
988.61209,0.05012
986.55248,0.04981
984.49287,0.04947
982.43326,0.04925
980.37365,0.04911
978.31405,0.04884
976.25444,0.04843
974.19483,0.04801
972.13522,0.04759
970.07561,0.04733
968.01600,0.04727
965.95639,0.04724
963.89679,0.04715
961.83718,0.04704
959.77757,0.04688
957.71796,0.04672
955.65835,0.04662
953.59874,0.04652
951.53914,0.04638
949.47953,0.04629
947.41992,0.04631
945.36031,0.04643
943.30070,0.04667
941.24109,0.04707
939.18148,0.04752
937.12188,0.04797
935.06227,0.04833
933.00266,0.04850
930.94305,0.04847
928.88344,0.04827
926.82383,0.04797
924.76422,0.04773
922.70462,0.04736
920.64501,0.04669
918.58540,0.04591
916.52579,0.04527
914.46618,0.04478
912.40657,0.04450
910.34696,0.04436
908.28736,0.04420
906.22775,0.04395
904.16814,0.04383
902.10853,0.04384
900.04892,0.04373
897.98931,0.04366
895.92971,0.04380
893.87010,0.04395
891.81049,0.04406
889.75088,0.04418
887.69127,0.04431
885.63166,0.04438
883.57205,0.04439
881.51245,0.04444
879.45284,0.04446
877.39323,0.04447
875.33362,0.04455
873.27401,0.04459
871.21440,0.04452
869.15479,0.04457
867.09519,0.04469
865.03558,0.04471
862.97597,0.04473
860.91636,0.04478
858.85675,0.04479
856.79714,0.04477
854.73753,0.04482
852.67793,0.04494
850.61832,0.04502
848.55871,0.04510
846.49910,0.04518
844.43949,0.04530
842.37988,0.04557
840.32028,0.04600
838.26067,0.04666
836.20106,0.04738
834.14145,0.04781
832.08184,0.04800
830.02223,0.04823
827.96262,0.04861
825.90302,0.04913
823.84341,0.04962
821.78380,0.04992
819.72419,0.05018
817.66458,0.05056
815.60497,0.05100
813.54536,0.05141
811.48576,0.05178
809.42615,0.05218
807.36654,0.05260
805.30693,0.05292
803.24732,0.05316
801.18771,0.05359
799.12810,0.05418
797.06850,0.05473
795.00889,0.05530
792.94928,0.05602
790.88967,0.05681
788.83006,0.05764
786.77045,0.05840
784.71085,0.05897
782.65124,0.05944
780.59163,0.05992
778.53202,0.06039
776.47241,0.06077
774.41280,0.06112
772.35319,0.06156
770.29359,0.06202
768.23398,0.06236
766.17437,0.06273
764.11476,0.06320
762.05515,0.06372
759.99554,0.06432
757.93593,0.06499
755.87633,0.06572
753.81672,0.06658
751.75711,0.06754
749.69750,0.06846
747.63789,0.06918
745.57828,0.06975
743.51867,0.07041
741.45907,0.07103
739.39946,0.07130
737.33985,0.07124
735.28024,0.07120
733.22063,0.07135
731.16102,0.07167
729.10142,0.07216
727.04181,0.07282
724.98220,0.07360
722.92259,0.07438
720.86298,0.07521
718.80337,0.07612
716.74376,0.07711
714.68416,0.07830
712.62455,0.07968
710.56494,0.08111
708.50533,0.08276
706.44572,0.08474
704.38611,0.08672
702.32650,0.08846
700.26690,0.08968
698.20729,0.09023
696.14768,0.09041
694.08807,0.09050
692.02846,0.09054
689.96885,0.09067
687.90924,0.09099
685.84964,0.09148
683.79003,0.09190
681.73042,0.09227
679.67081,0.09279
677.61120,0.09334
675.55159,0.09380
673.49199,0.09422
671.43238,0.09448
669.37277,0.09455
667.31316,0.09510
665.25355,0.09585
663.19394,0.09617
661.13433,0.09612
659.07473,0.09596
657.01512,0.09586
654.95551,0.09559
652.89590,0.09513
650.83629,0.09459
648.77668,0.09413
646.71707,0.09395
644.65747,0.09393
642.59786,0.09393
640.53825,0.09383
638.47864,0.09344
636.41903,0.09310
634.35942,0.09311
632.29981,0.09326
630.24021,0.09352
628.18060,0.09385
626.12099,0.09420
624.06138,0.09466
622.00177,0.09499
619.94216,0.09509
617.88256,0.09524
615.82295,0.09549
613.76334,0.09558
611.70373,0.09543
609.64412,0.09519
607.58451,0.09502
605.52490,0.09507
603.46530,0.09517
601.40569,0.09528
599.34608,0.09558
597.28647,0.09568
595.22686,0.09543
593.16725,0.09528
591.10764,0.09530
589.04804,0.09530
586.98843,0.09520
584.92882,0.09488
582.86921,0.09443
580.80960,0.09419
578.74999,0.09415
576.69039,0.09398
574.63078,0.09357
572.57117,0.09323
570.51156,0.09319
568.45195,0.09318
566.39234,0.09296
564.33273,0.09266
562.27313,0.09238
560.21352,0.09199
558.15391,0.09147
556.09430,0.09107
554.03469,0.09068
551.97508,0.09030
549.91547,0.09013
547.85587,0.08979
545.79626,0.08905
543.73665,0.08833
541.67704,0.08795
539.61743,0.08789
537.55782,0.08796
535.49821,0.08791
533.43861,0.08751
531.37900,0.08698
529.31939,0.08665
527.25978,0.08655
525.20017,0.08651
523.14056,0.08621
521.08096,0.08562
519.02135,0.08520
516.96174,0.08512
514.90213,0.08510
512.84252,0.08504
510.78291,0.08483
508.72330,0.08444
506.66370,0.08417
504.60409,0.08400
502.54448,0.08366
500.48487,0.08306
498.42526,0.08223
496.36565,0.08148
494.30604,0.08095
492.24644,0.08031
490.18683,0.07950
488.12722,0.07871
486.06761,0.07795
484.00800,0.07743
481.94839,0.07716
479.88878,0.07668
477.82918,0.07603
475.76957,0.07560
473.70996,0.07555
471.65035,0.07554
469.59074,0.07516
467.53113,0.07445
465.47153,0.07369
463.41192,0.07319
461.35231,0.07294
459.29270,0.07246
457.23309,0.07166
455.17348,0.07082
453.11387,0.06990
451.05427,0.06881
448.99466,0.06751
446.93505,0.06623
444.87544,0.06521
442.81583,0.06427
440.75622,0.06337
438.69661,0.06238
436.63701,0.06128
434.57740,0.06055
432.51779,0.06043
430.45818,0.06007
428.39857,0.05908
426.33896,0.05870
424.27935,0.05898
422.21975,0.05869
420.16014,0.05790
418.10053,0.05723
416.04092,0.05674
413.98131,0.05626
411.92170,0.05556
409.86210,0.05467
407.80249,0.05380
405.74288,0.05278
403.68327,0.05179
401.62366,0.05114
399.56405,0.05052
