3997.70013,0.07426
3995.64052,0.07487
3993.58092,0.07457
3991.52131,0.07446
3989.46170,0.07501
3987.40209,0.07533
3985.34248,0.07473
3983.28287,0.07373
3981.22327,0.07318
3979.16366,0.07302
3977.10405,0.07297
3975.04444,0.07303
3972.98483,0.07306
3970.92522,0.07309
3968.86561,0.07305
3966.80601,0.07256
3964.74640,0.07166
3962.68679,0.07125
3960.62718,0.07181
3958.56757,0.07215
3956.50796,0.07174
3954.44835,0.07118
3952.38875,0.07094
3950.32914,0.07132
3948.26953,0.07171
3946.20992,0.07163
3944.15031,0.07151
3942.09070,0.07146
3940.03109,0.07097
3937.97149,0.07034
3935.91188,0.07037
3933.85227,0.07085
3931.79266,0.07091
3929.73305,0.07036
3927.67344,0.07016
3925.61384,0.07085
3923.55423,0.07163
3921.49462,0.07173
3919.43501,0.07112
3917.37540,0.07046
3915.31579,0.07043
3913.25618,0.07042
3911.19658,0.06992
3909.13697,0.06926
3907.07736,0.06877
3905.01775,0.06857
3902.95814,0.06862
3900.89853,0.06878
3898.83892,0.06882
3896.77932,0.06847
3894.71971,0.06811
3892.66010,0.06824
3890.60049,0.06857
3888.54088,0.06854
3886.48127,0.06823
3884.42166,0.06804
3882.36206,0.06804
3880.30245,0.06786
3878.24284,0.06776
3876.18323,0.06823
3874.12362,0.06869
3872.06401,0.06835
3870.00441,0.06768
3867.94480,0.06729
3865.88519,0.06718
3863.82558,0.06763
3861.76597,0.06831
3859.70636,0.06846
3857.64675,0.06806
3855.58715,0.06744
3853.52754,0.06690
3851.46793,0.06667
3849.40832,0.06679
3847.34871,0.06702
3845.28910,0.06682
3843.22949,0.06606
3841.16989,0.06528
3839.11028,0.06481
3837.05067,0.06496
3834.99106,0.06567
3832.93145,0.06599
3830.87184,0.06562
3828.81223,0.06531
3826.75263,0.06535
3824.69302,0.06520
3822.63341,0.06454
3820.57380,0.06396
3818.51419,0.06424
3816.45458,0.06512
3814.39498,0.06568
3812.33537,0.06549
3810.27576,0.06517
3808.21615,0.06471
3806.15654,0.06380
3804.09693,0.06291
3802.03732,0.06278
3799.97772,0.06369
3797.91811,0.06445
3795.85850,0.06435
3793.79889,0.06391
3791.73928,0.06386
3789.67967,0.06405
3787.62006,0.06428
3785.56046,0.06442
3783.50085,0.06377
3781.44124,0.06278
3779.38163,0.06266
3777.32202,0.06299
3775.26241,0.06321
3773.20280,0.06358
3771.14320,0.06384
3769.08359,0.06327
3767.02398,0.06230
3764.96437,0.06191
3762.90476,0.06205
3760.84515,0.06261
3758.78555,0.06327
3756.72594,0.06333
3754.66633,0.06308
3752.60672,0.06279
3750.54711,0.06245
3748.48750,0.06178
3746.42789,0.06105
3744.36829,0.06109
3742.30868,0.06094
3740.24907,0.06035
3738.18946,0.06030
3736.12985,0.06101
3734.07024,0.06205
3732.01063,0.06199
3729.95103,0.06083
3727.89142,0.05995
3725.83181,0.05999
3723.77220,0.06032
3721.71259,0.06007
3719.65298,0.05972
3717.59337,0.05975
3715.53377,0.05973
3713.47416,0.05932
3711.41455,0.05898
3709.35494,0.05840
3707.29533,0.05755
3705.23572,0.05786
3703.17612,0.05899
3701.11651,0.05929
3699.05690,0.05877
3696.99729,0.05841
3694.93768,0.05866
3692.87807,0.05921
3690.81846,0.05933
3688.75886,0.05911
3686.69925,0.05906
3684.63964,0.05931
3682.58003,0.05964
3680.52042,0.05939
3678.46081,0.05793
3676.40120,0.05621
3674.34160,0.05627
3672.28199,0.05743
3670.22238,0.05846
3668.16277,0.05875
3666.10316,0.05785
3664.04355,0.05678
3661.98394,0.05669
3659.92434,0.05726
3657.86473,0.05757
3655.80512,0.05716
3653.74551,0.05633
3651.68590,0.05603
3649.62629,0.05673
3647.56669,0.05749
3645.50708,0.05768
3643.44747,0.05754
3641.38786,0.05686
3639.32825,0.05632
3637.26864,0.05655
3635.20903,0.05708
3633.14943,0.05751
3631.08982,0.05749
3629.03021,0.05682
3626.97060,0.05601
3624.91099,0.05577
3622.85138,0.05588
3620.79177,0.05576
3618.73217,0.05566
3616.67256,0.05586
3614.61295,0.05610
3612.55334,0.05654
3610.49373,0.05678
3608.43412,0.05643
3606.37451,0.05602
3604.31491,0.05558
3602.25530,0.05505
3600.19569,0.05525
3598.13608,0.05587
3596.07647,0.05592
3594.01686,0.05587
3591.95726,0.05606
3589.89765,0.05620
3587.83804,0.05654
3585.77843,0.05694
3583.71882,0.05697
3581.65921,0.05680
3579.59960,0.05646
3577.54000,0.05615
3575.48039,0.05621
3573.42078,0.05622
3571.36117,0.05613
3569.30156,0.05659
3567.24195,0.05741
3565.18234,0.05746
3563.12274,0.05690
3561.06313,0.05655
3559.00352,0.05631
3556.94391,0.05617
3554.88430,0.05626
3552.82469,0.05665
3550.76508,0.05704
3548.70548,0.05697
3546.64587,0.05671
3544.58626,0.05672
3542.52665,0.05710
3540.46704,0.05739
3538.40743,0.05727
3536.34783,0.05704
3534.28822,0.05681
3532.22861,0.05670
3530.16900,0.05673
3528.10939,0.05666
3526.04978,0.05687
3523.99017,0.05756
3521.93057,0.05818
3519.87096,0.05863
3517.81135,0.05896
3515.75174,0.05900
3513.69213,0.05901
3511.63252,0.05913
3509.57291,0.05912
3507.51331,0.05884
3505.45370,0.05836
3503.39409,0.05780
3501.33448,0.05743
3499.27487,0.05766
3497.21526,0.05825
3495.15565,0.05837
3493.09605,0.05829
3491.03644,0.05875
3488.97683,0.05918
3486.91722,0.05892
3484.85761,0.05849
3482.79800,0.05846
3480.73840,0.05871
3478.67879,0.05890
3476.61918,0.05917
3474.55957,0.05960
3472.49996,0.05958
3470.44035,0.05900
3468.38074,0.05853
3466.32114,0.05862
3464.26153,0.05906
3462.20192,0.05942
3460.14231,0.05978
3458.08270,0.06035
3456.02309,0.06058
3453.96348,0.06028
3451.90388,0.06000
3449.84427,0.05986
3447.78466,0.06004
3445.72505,0.06067
3443.66544,0.06114
3441.60583,0.06117
3439.54622,0.06099
3437.48662,0.06092
3435.42701,0.06137
3433.36740,0.06190
3431.30779,0.06184
3429.24818,0.06161
3427.18857,0.06163
3425.12897,0.06183
3423.06936,0.06234
3421.00975,0.06292
3418.95014,0.06298
3416.89053,0.06271
3414.83092,0.06249
3412.77131,0.06270
3410.71171,0.06351
3408.65210,0.06402
3406.59249,0.06365
3404.53288,0.06334
3402.47327,0.06392
3400.41366,0.06479
3398.35405,0.06544
3396.29445,0.06602
3394.23484,0.06611
3392.17523,0.06551
3390.11562,0.06515
3388.05601,0.06545
3385.99640,0.06561
3383.93679,0.06570
3381.87719,0.06642
3379.81758,0.06747
3377.75797,0.06828
3375.69836,0.06873
3373.63875,0.06918
3371.57914,0.07001
3369.51954,0.07124
3367.45993,0.07251
3365.40032,0.07352
3363.34071,0.07469
3361.28110,0.07628
3359.22149,0.07804
3357.16188,0.08062
3355.10228,0.08490
3353.04267,0.09133
3350.98306,0.10141
3348.92345,0.11918
3346.86384,0.14993
3344.80423,0.19368
3342.74462,0.23552
3340.68502,0.25038
3338.62541,0.23042
3336.56580,0.19434
3334.50619,0.16257
3332.44658,0.14178
3330.38697,0.13024
3328.32736,0.12517
3326.26776,0.12513
3324.20815,0.12938
3322.14854,0.13836
3320.08893,0.15264
3318.02932,0.16705
3315.96971,0.17260
3313.91011,0.16679
3311.85050,0.15555
3309.79089,0.14538
3307.73128,0.13885
3305.67167,0.13589
3303.61206,0.13540
3301.55245,0.13682
3299.49285,0.14050
3297.43324,0.14682
3295.37363,0.15628
3293.31402,0.17026
3291.25441,0.19065
3289.19480,0.21916
3287.13519,0.25486
3285.07559,0.29151
3283.01598,0.31870
3280.95637,0.32807
3278.89676,0.31973
3276.83715,0.30165
3274.77754,0.28278
3272.71793,0.26883
3270.65833,0.26302
3268.59872,0.26675
3266.53911,0.28012
3264.47950,0.30124
3262.41989,0.32477
3260.36028,0.34270
3258.30068,0.34753
3256.24107,0.33732
3254.18146,0.31679
3252.12185,0.29261
3250.06224,0.26886
3248.00263,0.24728
3245.94302,0.22902
3243.88342,0.21450
3241.82381,0.20297
3239.76420,0.19345
3237.70459,0.18562
3235.64498,0.17933
3233.58537,0.17418
3231.52576,0.16991
3229.46616,0.16631
3227.40655,0.16286
3225.34694,0.15945
3223.28733,0.15672
3221.22772,0.15451
3219.16811,0.15216
3217.10850,0.15019
3215.04890,0.14882
3212.98929,0.14732
3210.92968,0.14571
3208.87007,0.14431
3206.81046,0.14300
3204.75085,0.14143
3202.69125,0.13975
3200.63164,0.13856
3198.57203,0.13736
3196.51242,0.13578
3194.45281,0.13435
3192.39320,0.13342
3190.33359,0.13252
3188.27399,0.13120
3186.21438,0.12991
3184.15477,0.12898
3182.09516,0.12796
3180.03555,0.12679
3177.97594,0.12592
3175.91633,0.12555
3173.85673,0.12538
3171.79712,0.12551
3169.73751,0.12580
3167.67790,0.12550
3165.61829,0.12481
3163.55868,0.12436
3161.49907,0.12390
3159.43947,0.12327
3157.37986,0.12330
3155.32025,0.12407
3153.26064,0.12460
3151.20103,0.12448
3149.14142,0.12412
3147.08182,0.12405
3145.02221,0.12422
3142.96260,0.12464
3140.90299,0.12562
3138.84338,0.12658
3136.78377,0.12678
3134.72416,0.12660
3132.66456,0.12681
3130.60495,0.12740
3128.54534,0.12795
3126.48573,0.12834
3124.42612,0.12877
3122.36651,0.12972
3120.30690,0.13108
3118.24730,0.13209
3116.18769,0.13281
3114.12808,0.13390
3112.06847,0.13541
3110.00886,0.13720
3107.94925,0.13908
3105.88965,0.14077
3103.83004,0.14238
3101.77043,0.14416
3099.71082,0.14640
3097.65121,0.14908
3095.59160,0.15213
3093.53199,0.15571
3091.47239,0.15971
3089.41278,0.16357
3087.35317,0.16719
3085.29356,0.17131
3083.23395,0.17528
3081.17434,0.17792
3079.11473,0.17942
3077.05513,0.17987
3074.99552,0.17902
3072.93591,0.17726
3070.87630,0.17495
3068.81669,0.17231
3066.75708,0.16962
3064.69747,0.16667
3062.63787,0.16333
3060.57826,0.15985
3058.51865,0.15682
3056.45904,0.15424
3054.39943,0.15136
3052.33982,0.14837
3050.28022,0.14601
3048.22061,0.14422
3046.16100,0.14281
3044.10139,0.14180
3042.04178,0.14096
3039.98217,0.13979
3037.92256,0.13846
3035.86296,0.13767
3033.80335,0.13720
3031.74374,0.13649
3029.68413,0.13567
3027.62452,0.13499
3025.56491,0.13426
3023.50530,0.13365
3021.44570,0.13345
3019.38609,0.13328
3017.32648,0.13322
3015.26687,0.13347
3013.20726,0.13354
3011.14765,0.13335
3009.08804,0.13353
3007.02844,0.13462
3004.96883,0.13743
3002.90922,0.14204
3000.84961,0.14738
2998.79000,0.15225
2996.73039,0.15491
2994.67079,0.15466
2992.61118,0.15318
2990.55157,0.15255
2988.49196,0.15400
2986.43235,0.15726
2984.37274,0.16105
2982.31313,0.16597
2980.25353,0.17241
2978.19392,0.17742
2976.13431,0.17840
2974.07470,0.17636
2972.01509,0.17367
2969.95548,0.17144
2967.89587,0.17068
2965.83627,0.17245
2963.77666,0.17446
2961.71705,0.17285
2959.65744,0.16808
2957.59783,0.16370
2955.53822,0.16202
2953.47861,0.16325
2951.41901,0.16718
2949.35940,0.17366
2947.29979,0.18036
2945.24018,0.18336
2943.18057,0.18157
2941.12096,0.17759
2939.06136,0.17425
2937.00175,0.17218
2934.94214,0.17088
2932.88253,0.16991
2930.82292,0.16873
2928.76331,0.16687
2926.70370,0.16388
2924.64410,0.15956
2922.58449,0.15395
2920.52488,0.14725
2918.46527,0.14052
2916.40566,0.13683
2914.34605,0.13958
2912.28644,0.14705
2910.22684,0.15384
2908.16723,0.15753
2906.10762,0.15919
2904.04801,0.16000
2901.98840,0.16014
2899.92879,0.15986
2897.86918,0.15968
2895.80958,0.15949
2893.74997,0.15923
2891.69036,0.15932
2889.63075,0.15990
2887.57114,0.16074
2885.51153,0.16163
2883.45193,0.16245
2881.39232,0.16322
2879.33271,0.16389
2877.27310,0.16421
2875.21349,0.16358
2873.15388,0.16171
2871.09427,0.15911
2869.03467,0.15638
2866.97506,0.15343
2864.91545,0.15020
2862.85584,0.14721
2860.79623,0.14477
2858.73662,0.14236
2856.67701,0.13941
2854.61741,0.13541
2852.55780,0.12968
2850.49819,0.12337
2848.43858,0.12109
2846.37897,0.12535
2844.31936,0.13185
2842.25975,0.13627
2840.20015,0.13870
2838.14054,0.14023
2836.08093,0.14112
2834.02132,0.14167
2831.96171,0.14215
2829.90210,0.14242
2827.84250,0.14248
2825.78289,0.14257
2823.72328,0.14265
2821.66367,0.14265
2819.60406,0.14268
2817.54445,0.14262
2815.48484,0.14230
2813.42524,0.14195
2811.36563,0.14168
2809.30602,0.14124
2807.24641,0.14086
2805.18680,0.14077
2803.12719,0.14068
2801.06758,0.14044
2799.00798,0.14023
2796.94837,0.14009
2794.88876,0.13983
2792.82915,0.13957
2790.76954,0.13958
2788.70993,0.13982
2786.65032,0.13991
2784.59072,0.13974
2782.53111,0.13958
2780.47150,0.13931
2778.41189,0.13899
2776.35228,0.13893
2774.29267,0.13886
2772.23307,0.13845
2770.17346,0.13783
2768.11385,0.13722
2766.05424,0.13660
2763.99463,0.13581
2761.93502,0.13487
2759.87541,0.13390
2757.81581,0.13296
2755.75620,0.13207
2753.69659,0.13116
2751.63698,0.13028
2749.57737,0.12941
2747.51776,0.12842
2745.45815,0.12749
2743.39855,0.12671
2741.33894,0.12592
2739.27933,0.12514
2737.21972,0.12444
2735.16011,0.12366
2733.10050,0.12271
2731.04089,0.12192
2728.98129,0.12151
2726.92168,0.12098
2724.86207,0.12016
2722.80246,0.11943
2720.74285,0.11893
2718.68324,0.11845
2716.62364,0.11784
2714.56403,0.11720
2712.50442,0.11657
2710.44481,0.11565
2708.38520,0.11447
2706.32559,0.11337
2704.26598,0.11238
2702.20638,0.11146
2700.14677,0.11068
2698.08716,0.10997
2696.02755,0.10947
2693.96794,0.10911
2691.90833,0.10850
2689.84872,0.10796
2687.78912,0.10783
2685.72951,0.10786
2683.66990,0.10782
2681.61029,0.10774
2679.55068,0.10775
2677.49107,0.10777
2675.43146,0.10768
2673.37186,0.10757
2671.31225,0.10763
2669.25264,0.10792
2667.19303,0.10802
2665.13342,0.10775
2663.07381,0.10750
2661.01421,0.10748
2658.95460,0.10744
2656.89499,0.10717
2654.83538,0.10687
2652.77577,0.10671
2650.71616,0.10655
2648.65655,0.10636
2646.59695,0.10639
2644.53734,0.10666
2642.47773,0.10695
2640.41812,0.10701
2638.35851,0.10666
2636.29890,0.10616
2634.23929,0.10591
2632.17969,0.10577
2630.12008,0.10555
2628.06047,0.10525
2626.00086,0.10474
2623.94125,0.10415
2621.88164,0.10390
2619.82203,0.10375
2617.76243,0.10334
2615.70282,0.10306
2613.64321,0.10278
2611.58360,0.10228
2609.52399,0.10195
2607.46438,0.10176
2605.40478,0.10139
2603.34517,0.10095
2601.28556,0.10065
2599.22595,0.10047
2597.16634,0.10034
2595.10673,0.10007
2593.04712,0.09951
2590.98752,0.09891
2588.92791,0.09839
2586.86830,0.09815
2584.80869,0.09803
2582.74908,0.09764
2580.68947,0.09728
2578.62986,0.09702
2576.57026,0.09653
2574.51065,0.09625
2572.45104,0.09636
2570.39143,0.09640
2568.33182,0.09636
2566.27221,0.09652
2564.21260,0.09678
2562.15300,0.09668
2560.09339,0.09616
2558.03378,0.09584
2555.97417,0.09580
2553.91456,0.09555
2551.85495,0.09538
2549.79535,0.09534
2547.73574,0.09500
2545.67613,0.09465
2543.61652,0.09478
2541.55691,0.09518
2539.49730,0.09542
2537.43769,0.09545
2535.37809,0.09548
2533.31848,0.09550
2531.25887,0.09529
2529.19926,0.09513
2527.13965,0.09564
2525.08004,0.09636
2523.02043,0.09652
2520.96083,0.09652
2518.90122,0.09672
2516.84161,0.09686
2514.78200,0.09689
2512.72239,0.09689
2510.66278,0.09707
2508.60317,0.09754
2506.54357,0.09801
2504.48396,0.09829
2502.42435,0.09823
2500.36474,0.09778
2498.30513,0.09729
2496.24552,0.09722
2494.18592,0.09748
2492.12631,0.09772
2490.06670,0.09814
2488.00709,0.09862
2485.94748,0.09836
2483.88787,0.09769
2481.82826,0.09733
2479.76866,0.09717
2477.70905,0.09697
2475.64944,0.09664
2473.58983,0.09624
2471.53022,0.09614
2469.47061,0.09629
2467.41100,0.09622
2465.35140,0.09600
2463.29179,0.09593
2461.23218,0.09582
2459.17257,0.09554
2457.11296,0.09532
2455.05335,0.09537
2452.99374,0.09536
2450.93414,0.09517
2448.87453,0.09506
2446.81492,0.09508
2444.75531,0.09511
2442.69570,0.09506
2440.63609,0.09491
2438.57649,0.09460
2436.51688,0.09433
2434.45727,0.09437
2432.39766,0.09427
2430.33805,0.09371
2428.27844,0.09315
2426.21883,0.09278
2424.15923,0.09253
2422.09962,0.09251
2420.04001,0.09270
2417.98040,0.09286
2415.92079,0.09287
2413.86118,0.09265
2411.80157,0.09203
2409.74197,0.09130
2407.68236,0.09086
2405.62275,0.09071
2403.56314,0.09063
2401.50353,0.09020
2399.44392,0.08963
2397.38431,0.08954
2395.32471,0.08999
2393.26510,0.09041
2391.20549,0.09019
2389.14588,0.08938
2387.08627,0.08875
2385.02666,0.08858
2382.96706,0.08831
2380.90745,0.08787
2378.84784,0.08764
2376.78823,0.08746
2374.72862,0.08683
2372.66901,0.08612
2370.60940,0.08582
2368.54980,0.08588
2366.49019,0.08619
2364.43058,0.08648
2362.37097,0.08645
2360.31136,0.08612
2358.25175,0.08580
2356.19214,0.08566
2354.13254,0.08574
2352.07293,0.08563
2350.01332,0.08501
2347.95371,0.08427
2345.89410,0.08377
2343.83449,0.08356
2341.77488,0.08353
2339.71528,0.08333
2337.65567,0.08269
2335.59606,0.08203
2333.53645,0.08181
2331.47684,0.08209
2329.41723,0.08247
2327.35763,0.08264
2325.29802,0.08246
2323.23841,0.08159
2321.17880,0.08069
2319.11919,0.08039
2317.05958,0.08010
2314.99997,0.07961
2312.94037,0.07907
2310.88076,0.07841
2308.82115,0.07755
2306.76154,0.07658
2304.70193,0.07589
2302.64232,0.07576
2300.58271,0.07590
2298.52311,0.07587
2296.46350,0.07551
2294.40389,0.07505
2292.34428,0.07469
2290.28467,0.07441
2288.22506,0.07411
2286.16545,0.07377
2284.10585,0.07329
2282.04624,0.07234
2279.98663,0.07110
2277.92702,0.07031
2275.86741,0.07030
2273.80780,0.07048
2271.74820,0.07036
2269.68859,0.07002
2267.62898,0.06938
2265.56937,0.06873
2263.50976,0.06845
2261.45015,0.06789
2259.39054,0.06685
2257.33094,0.06633
2255.27133,0.06631
2253.21172,0.06580
2251.15211,0.06506
2249.09250,0.06467
2247.03289,0.06429
2244.97328,0.06344
2242.91368,0.06272
2240.85407,0.06233
2238.79446,0.06147
2236.73485,0.06049
2234.67524,0.05962
2232.61563,0.05880
2230.55602,0.05861
2228.49642,0.05861
2226.43681,0.05765
2224.37720,0.05636
2222.31759,0.05627
2220.25798,0.05644
2218.19837,0.05549
2216.13877,0.05420
2214.07916,0.05356
2212.01955,0.05328
2209.95994,0.05255
2207.90033,0.05205
2205.84072,0.05255
2203.78111,0.05261
2201.72151,0.05152
2199.66190,0.05101
2197.60229,0.05084
2195.54268,0.04950
2193.48307,0.04804
2191.42346,0.04760
2189.36385,0.04790
2187.30425,0.04798
2185.24464,0.04757
2183.18503,0.04761
2181.12542,0.04810
2179.06581,0.04733
2177.00620,0.04508
2174.94659,0.04371
2172.88699,0.04371
2170.82738,0.04394
2168.76777,0.04424
2166.70816,0.04390
2164.64855,0.04333
2162.58894,0.04342
2160.52934,0.04251
2158.46973,0.04063
2156.41012,0.03984
2154.35051,0.03955
2152.29090,0.03916
2150.23129,0.03946
2148.17168,0.04079
2146.11208,0.04274
2144.05247,0.04376
2141.99286,0.04372
2139.93325,0.04425
2137.87364,0.04473
2135.81403,0.04441
2133.75442,0.04470
2131.69482,0.04602
2129.63521,0.04717
2127.57560,0.04768
2125.51599,0.04808
2123.45638,0.04856
2121.39677,0.04904
2119.33716,0.04984
2117.27756,0.05088
2115.21795,0.05148
2113.15834,0.05161
2111.09873,0.05167
2109.03912,0.05175
2106.97951,0.05189
2104.91991,0.05215
2102.86030,0.05257
2100.80069,0.05321
2098.74108,0.05409
2096.68147,0.05486
2094.62186,0.05537
2092.56225,0.05569
2090.50265,0.05585
2088.44304,0.05644
2086.38343,0.05778
2084.32382,0.05916
2082.26421,0.06007
2080.20460,0.06068
2078.14499,0.06102
2076.08539,0.06074
2074.02578,0.06022
2071.96617,0.06051
2069.90656,0.06091
2067.84695,0.06021
2065.78734,0.05909
2063.72773,0.05826
2061.66813,0.05741
2059.60852,0.05691
2057.54891,0.05660
2055.48930,0.05538
2053.42969,0.05419
2051.37008,0.05360
2049.31048,0.05203
2047.25087,0.05006
2045.19126,0.04912
2043.13165,0.04825
2041.07204,0.04689
2039.01243,0.04461
2036.95282,0.04110
2034.89322,0.03844
2032.83361,0.03781
2030.77400,0.03780
2028.71439,0.03810
2026.65478,0.03873
2024.59517,0.03861
2022.53556,0.03758
2020.47596,0.03684
2018.41635,0.03729
2016.35674,0.03774
2014.29713,0.03695
2012.23752,0.03598
2010.17791,0.03528
2008.11830,0.03435
2006.05870,0.03426
2003.99909,0.03575
2001.93948,0.03729
1999.87987,0.03758
1997.82026,0.03677
1995.76065,0.03616
1993.70105,0.03660
1991.64144,0.03724
1989.58183,0.03679
1987.52222,0.03496
1985.46261,0.03287
1983.40300,0.03220
1981.34339,0.03228
1979.28379,0.03105
1977.22418,0.02927
1975.16457,0.02857
1973.10496,0.02856
1971.04535,0.02888
1968.98574,0.02972
1966.92613,0.03051
1964.86653,0.03040
1962.80692,0.03001
1960.74731,0.03003
1958.68770,0.02982
1956.62809,0.02925
1954.56848,0.02897
1952.50887,0.02893
1950.44927,0.02886
1948.38966,0.02921
1946.33005,0.02994
1944.27044,0.03017
1942.21083,0.02971
1940.15122,0.02925
1938.09162,0.02916
1936.03201,0.02946
1933.97240,0.02953
1931.91279,0.02909
1929.85318,0.02879
1927.79357,0.02878
1925.73396,0.02853
1923.67436,0.02820
1921.61475,0.02839
1919.55514,0.02893
1917.49553,0.02941
1915.43592,0.02945
1913.37631,0.02912
1911.31670,0.02890
1909.25710,0.02867
1907.19749,0.02852
1905.13788,0.02888
1903.07827,0.02885
1901.01866,0.02804
1898.95905,0.02761
1896.89944,0.02747
1894.83984,0.02717
1892.78023,0.02718
1890.72062,0.02731
1888.66101,0.02716
1886.60140,0.02697
1884.54179,0.02715
1882.48219,0.02733
1880.42258,0.02692
1878.36297,0.02639
1876.30336,0.02642
1874.24375,0.02665
1872.18414,0.02662
1870.12453,0.02640
1868.06493,0.02622
1866.00532,0.02635
1863.94571,0.02666
1861.88610,0.02661
1859.82649,0.02616
1857.76688,0.02575
1855.70727,0.02557
1853.64767,0.02551
1851.58806,0.02552
1849.52845,0.02536
1847.46884,0.02493
1845.40923,0.02476
1843.34962,0.02484
1841.29002,0.02473
1839.23041,0.02442
1837.17080,0.02427
1835.11119,0.02450
1833.05158,0.02481
1830.99197,0.02494
1828.93236,0.02477
1826.87276,0.02449
1824.81315,0.02420
1822.75354,0.02382
1820.69393,0.02341
1818.63432,0.02317
1816.57471,0.02320
1814.51510,0.02337
1812.45550,0.02342
1810.39589,0.02349
1808.33628,0.02375
1806.27667,0.02386
1804.21706,0.02374
1802.15745,0.02362
1800.09784,0.02358
1798.03824,0.02346
1795.97863,0.02344
1793.91902,0.02358
1791.85941,0.02372
1789.79980,0.02377
1787.74019,0.02373
1785.68059,0.02361
1783.62098,0.02358
1781.56137,0.02371
1779.50176,0.02387
1777.44215,0.02396
1775.38254,0.02386
1773.32293,0.02370
1771.26333,0.02367
1769.20372,0.02367
1767.14411,0.02375
1765.08450,0.02387
1763.02489,0.02384
1760.96528,0.02391
1758.90567,0.02418
1756.84607,0.02443
1754.78646,0.02461
1752.72685,0.02477
1750.66724,0.02502
1748.60763,0.02518
1746.54802,0.02524
1744.48841,0.02534
1742.42881,0.02556
1740.36920,0.02586
1738.30959,0.02602
1736.24998,0.02604
1734.19037,0.02621
1732.13076,0.02652
1730.07116,0.02673
1728.01155,0.02704
1725.95194,0.02754
1723.89233,0.02813
1721.83272,0.02868
1719.77311,0.02923
1717.71350,0.02995
1715.65390,0.03078
1713.59429,0.03155
1711.53468,0.03246
1709.47507,0.03360
1707.41546,0.03497
1705.35585,0.03681
1703.29624,0.03917
1701.23664,0.04364
1699.17703,0.05221
1697.11742,0.06588
1695.05781,0.08813
1692.99820,0.10915
1690.93859,0.11722
1688.87898,0.11059
1686.81938,0.09580
1684.75977,0.07943
1682.70016,0.06704
1680.64055,0.06169
1678.58094,0.05955
1676.52133,0.05966
1674.46173,0.06276
1672.40212,0.06878
1670.34251,0.07896
1668.28290,0.09073
1666.22329,0.09677
1664.16368,0.09834
1662.10407,0.09944
1660.04447,0.10110
1657.98486,0.10389
1655.92525,0.10957
1653.86564,0.12646
1651.80603,0.15703
1649.74642,0.18156
1647.68681,0.20872
1645.62721,0.24620
1643.56760,0.28156
1641.50799,0.31400
1639.44838,0.34465
1637.38877,0.36788
1635.32916,0.37717
1633.26955,0.36924
1631.20995,0.35454
1629.15034,0.34219
1627.09073,0.33711
1625.03112,0.33923
1622.97151,0.34538
1620.91190,0.35024
1618.85230,0.35010
1616.79269,0.34416
1614.73308,0.33396
1612.67347,0.32335
1610.61386,0.31285
1608.55425,0.30277
1606.49464,0.29447
1604.43504,0.28890
1602.37543,0.28617
1600.31582,0.28594
1598.25621,0.28759
1596.19660,0.29036
1594.13699,0.29294
1592.07738,0.29377
1590.01778,0.29205
1587.95817,0.28764
1585.89856,0.28064
1583.83895,0.27164
1581.77934,0.26130
1579.71973,0.25065
1577.66012,0.23987
1575.60052,0.22865
1573.54091,0.21958
1571.48130,0.21267
1569.42169,0.20657
1567.36208,0.20244
1565.30247,0.20123
1563.24287,0.20279
1561.18326,0.20797
1559.12365,0.22348
1557.06404,0.24605
1555.00443,0.26485
1552.94482,0.28332
1550.88521,0.30050
1548.82561,0.31460
1546.76600,0.32448
1544.70639,0.33129
1542.64678,0.33680
1540.58717,0.34297
1538.52756,0.34997
1536.46795,0.35481
1534.40835,0.36014
1532.34874,0.36690
1530.28913,0.37047
1528.22952,0.36999
1526.16991,0.36649
1524.11030,0.36054
1522.05069,0.35263
1519.99109,0.34367
1517.93148,0.33520
1515.87187,0.32689
1513.81226,0.31915
1511.75265,0.31193
1509.69304,0.30508
1507.63344,0.29763
1505.57383,0.28880
1503.51422,0.28042
1501.45461,0.27210
1499.39500,0.26293
1497.33539,0.25294
1495.27578,0.24300
1493.21618,0.23413
1491.15657,0.22517
1489.09696,0.21518
1487.03735,0.20570
1484.97774,0.19736
1482.91813,0.18997
1480.85852,0.18365
1478.79892,0.17887
1476.73931,0.17543
1474.67970,0.17307
1472.62009,0.17193
1470.56048,0.17157
1468.50087,0.17202
1466.44126,0.17700
1464.38166,0.19351
1462.32205,0.22141
1460.26244,0.25268
1458.20283,0.27993
1456.14322,0.29033
1454.08361,0.28267
1452.02401,0.26756
1449.96440,0.25194
1447.90479,0.24397
1445.84518,0.24483
1443.78557,0.24786
1441.72596,0.24438
1439.66635,0.22827
1437.60675,0.20120
1435.54714,0.17386
1433.48753,0.15696
1431.42792,0.14712
1429.36831,0.14077
1427.30870,0.13789
1425.24909,0.13874
1423.18949,0.14393
1421.12988,0.15508
1419.07027,0.17804
1417.01066,0.21374
1414.95105,0.25581
1412.89144,0.30152
1410.83183,0.34184
1408.77223,0.36494
1406.71262,0.36839
1404.65301,0.35938
1402.59340,0.34821
1400.53379,0.33941
1398.47418,0.32874
1396.41458,0.31005
1394.35497,0.28140
1392.29536,0.25024
1390.23575,0.22375
1388.17614,0.20176
1386.11653,0.18554
1384.05692,0.17781
1381.99732,0.17787
1379.93771,0.18210
1377.87810,0.18395
1375.81849,0.17669
1373.75888,0.16310
1371.69927,0.15838
1369.63966,0.17373
1367.58006,0.20817
1365.52045,0.24974
1363.46084,0.27942
1361.40123,0.28032
1359.34162,0.25976
1357.28201,0.23769
1355.22240,0.22278
1353.16280,0.21559
1351.10319,0.21088
1349.04358,0.20035
1346.98397,0.18252
1344.92436,0.16326
1342.86475,0.14724
1340.80515,0.13526
1338.74554,0.12705
1336.68593,0.12305
1334.62632,0.12369
1332.56671,0.12741
1330.50710,0.12963
1328.44749,0.12773
1326.38789,0.12496
1324.32828,0.12445
1322.26867,0.12378
1320.20906,0.11993
1318.14945,0.11445
1316.08984,0.10995
1314.03023,0.10647
1311.97063,0.10378
1309.91102,0.10311
1307.85141,0.10494
1305.79180,0.10662
1303.73219,0.10436
1301.67258,0.09770
1299.61297,0.08949
1297.55337,0.08223
1295.49376,0.07638
1293.43415,0.07160
1291.37454,0.06758
1289.31493,0.06421
1287.25532,0.06149
1285.19572,0.05932
1283.13611,0.05753
1281.07650,0.05609
1279.01689,0.05525
1276.95728,0.05538
1274.89767,0.05729
1272.83806,0.06284
1270.77846,0.07379
1268.71885,0.08510
1266.65924,0.08637
1264.59963,0.07673
1262.54002,0.06549
1260.48041,0.05846
1258.42080,0.05525
1256.36120,0.05425
1254.30159,0.05484
1252.24198,0.05690
1250.18237,0.05991
1248.12276,0.06300
1246.06315,0.06609
1244.00354,0.06955
1241.94394,0.07289
1239.88433,0.07647
1237.82472,0.08358
1235.76511,0.09567
1233.70550,0.10655
1231.64589,0.10935
1229.58629,0.10622
1227.52668,0.10280
1225.46707,0.10079
1223.40746,0.09990
1221.34785,0.09943
1219.28824,0.09791
1217.22863,0.09448
1215.16903,0.08982
1213.10942,0.08552
1211.04981,0.08282
1208.99020,0.08179
1206.93059,0.08153
1204.87098,0.08063
1202.81137,0.07787
1200.75177,0.07318
1198.69216,0.06738
1196.63255,0.06137
1194.57294,0.05595
1192.51333,0.05156
1190.45372,0.04819
1188.39411,0.04557
1186.33451,0.04355
1184.27490,0.04212
1182.21529,0.04126
1180.15568,0.04100
1178.09607,0.04132
1176.03646,0.04221
1173.97686,0.04385
1171.91725,0.04653
1169.85764,0.05049
1167.79803,0.05599
1165.73842,0.06348
1163.67881,0.07388
1161.61920,0.08716
1159.55960,0.10010
1157.49999,0.10807
1155.44038,0.11101
1153.38077,0.11422
1151.32116,0.12178
1149.26155,0.13183
1147.20194,0.13808
1145.14234,0.13541
1143.08273,0.12420
1141.02312,0.10864
1138.96351,0.09285
1136.90390,0.07937
1134.84429,0.06912
1132.78468,0.06199
1130.72508,0.05764
1128.66547,0.05573
1126.60586,0.05576
1124.54625,0.05693
1122.48664,0.05764
1120.42703,0.05616
1118.36743,0.05327
1116.30782,0.05197
1114.24821,0.05438
1112.18860,0.05957
1110.12899,0.06281
1108.06938,0.06004
1106.00977,0.05293
1103.95017,0.04577
1101.89056,0.04064
1099.83095,0.03736
1097.77134,0.03533
1095.71173,0.03418
1093.65212,0.03361
1091.59251,0.03334
1089.53291,0.03346
1087.47330,0.03464
1085.41369,0.03742
1083.35408,0.04014
1081.29447,0.04036
1079.23486,0.03901
1077.17525,0.03784
1075.11565,0.03599
1073.05604,0.03338
1070.99643,0.03175
1068.93682,0.03163
1066.87721,0.03234
1064.81760,0.03448
1062.75800,0.04014
1060.69839,0.05028
1058.63878,0.06254
1056.57917,0.07243
1054.51956,0.07601
1052.45995,0.07338
1050.40034,0.06816
1048.34074,0.06160
1046.28113,0.05312
1044.22152,0.04434
1042.16191,0.03730
1040.10230,0.03260
1038.04269,0.02978
1035.98308,0.02806
1033.92348,0.02705
1031.86387,0.02671
1029.80426,0.02697
1027.74465,0.02810
1025.68504,0.03076
1023.62543,0.03546
1021.56582,0.04223
1019.50622,0.05021
1017.44661,0.05744
1015.38700,0.06156
1013.32739,0.06078
1011.26778,0.05541
1009.20817,0.04810
1007.14857,0.04136
1005.08896,0.03603
1003.02935,0.03209
1000.96974,0.02946
998.91013,0.02779
996.85052,0.02660
994.79091,0.02569
992.73131,0.02511
990.67170,0.02482
988.61209,0.02478
986.55248,0.02504
984.49287,0.02576
982.43326,0.02719
980.37365,0.02954
978.31405,0.03303
976.25444,0.03789
974.19483,0.04514
972.13522,0.05779
970.07561,0.07865
968.01600,0.10305
965.95639,0.11868
963.89679,0.12138
961.83718,0.11949
959.77757,0.11600
957.71796,0.10598
955.65835,0.09047
953.59874,0.07723
951.53914,0.07090
949.47953,0.06917
947.41992,0.06694
945.36031,0.06189
943.30070,0.05503
941.24109,0.04828
939.18148,0.04317
937.12188,0.04023
935.06227,0.03911
933.00266,0.03942
930.94305,0.04126
928.88344,0.04483
926.82383,0.04979
924.76422,0.05425
922.70462,0.05510
920.64501,0.05153
918.58540,0.04624
916.52579,0.04165
914.46618,0.03814
912.40657,0.03576
910.34696,0.03476
908.28736,0.03507
906.22775,0.03650
904.16814,0.03909
902.10853,0.04270
900.04892,0.04567
897.98931,0.04519
895.92971,0.04086
893.87010,0.03574
891.81049,0.03236
889.75088,0.03089
887.69127,0.03101
885.63166,0.03285
883.57205,0.03532
881.51245,0.03587
879.45284,0.03360
877.39323,0.03059
875.33362,0.02868
873.27401,0.02755
871.21440,0.02653
869.15479,0.02609
867.09519,0.02711
865.03558,0.03002
862.97597,0.03423
860.91636,0.03703
858.85675,0.03592
856.79714,0.03244
854.73753,0.02989
852.67793,0.02965
850.61832,0.03099
848.55871,0.03200
846.49910,0.03114
844.43949,0.02872
842.37988,0.02601
840.32028,0.02386
838.26067,0.02244
836.20106,0.02149
834.14145,0.02069
832.08184,0.02007
830.02223,0.01975
827.96262,0.01960
825.90302,0.01947
823.84341,0.01943
821.78380,0.01946
819.72419,0.01951
817.66458,0.01954
815.60497,0.01966
813.54536,0.01991
811.48576,0.02012
809.42615,0.02039
807.36654,0.02085
805.30693,0.02143
803.24732,0.02199
801.18771,0.02267
799.12810,0.02351
797.06850,0.02451
795.00889,0.02602
792.94928,0.02814
790.88967,0.02985
788.83006,0.03007
786.77045,0.02906
784.71085,0.02812
782.65124,0.02817
780.59163,0.02931
778.53202,0.03132
776.47241,0.03364
774.41280,0.03548
772.35319,0.03634
770.29359,0.03620
768.23398,0.03516
766.17437,0.03357
764.11476,0.03198
762.05515,0.03048
759.99554,0.02884
757.93593,0.02724
755.87633,0.02601
753.81672,0.02510
751.75711,0.02444
749.69750,0.02404
747.63789,0.02379
745.57828,0.02377
743.51867,0.02416
741.45907,0.02495
739.39946,0.02623
737.33985,0.02817
735.28024,0.03105
733.22063,0.03506
731.16102,0.03990
729.10142,0.04475
727.04181,0.04911
724.98220,0.05228
722.92259,0.05269
720.86298,0.04961
718.80337,0.04477
716.74376,0.04062
714.68416,0.03818
712.62455,0.03760
710.56494,0.03886
708.50533,0.04208
706.44572,0.04759
704.38611,0.05598
702.32650,0.06764
700.26690,0.08179
698.20729,0.09593
696.14768,0.10658
694.08807,0.11146
692.02846,0.11172
689.96885,0.11119
687.90924,0.11236
685.84964,0.11428
683.79003,0.11448
681.73042,0.11199
679.67081,0.10828
677.61120,0.10565
675.55159,0.10490
673.49199,0.10413
671.43238,0.10095
669.37277,0.09400
667.31316,0.08397
665.25355,0.07692
663.19394,0.07360
661.13433,0.07416
659.07473,0.08039
657.01512,0.09117
654.95551,0.10060
652.89590,0.10081
650.83629,0.09014
648.77668,0.07468
646.71707,0.06104
644.65747,0.05195
642.59786,0.04733
640.53825,0.04668
638.47864,0.05010
636.41903,0.05835
634.35942,0.07103
632.29981,0.08265
630.24021,0.08471
628.18060,0.07553
626.12099,0.06188
624.06138,0.05029
622.00177,0.04261
619.94216,0.03824
617.88256,0.03659
615.82295,0.03760
613.76334,0.04215
611.70373,0.05195
609.64412,0.06661
607.58451,0.07904
605.52490,0.07900
603.46530,0.06667
601.40569,0.05218
599.34608,0.04249
597.28647,0.03861
595.22686,0.03902
593.16725,0.04034
591.10764,0.03865
589.04804,0.03369
586.98843,0.02842
584.92882,0.02450
582.86921,0.02185
580.80960,0.02035
578.74999,0.01963
576.69039,0.01895
574.63078,0.01817
572.57117,0.01754
570.51156,0.01704
568.45195,0.01666
566.39234,0.01650
564.33273,0.01641
562.27313,0.01639
560.21352,0.01653
558.15391,0.01656
556.09430,0.01648
554.03469,0.01671
551.97508,0.01708
549.91547,0.01716
547.85587,0.01721
545.79626,0.01749
543.73665,0.01782
541.67704,0.01811
539.61743,0.01841
537.55782,0.01909
535.49821,0.02048
533.43861,0.02255
531.37900,0.02485
529.31939,0.02675
527.25978,0.02781
525.20017,0.02794
523.14056,0.02774
521.08096,0.02836
519.02135,0.03038
516.96174,0.03350
514.90213,0.03653
512.84252,0.03785
510.78291,0.03708
508.72330,0.03500
506.66370,0.03261
504.60409,0.03053
502.54448,0.02882
500.48487,0.02754
498.42526,0.02669
496.36565,0.02609
494.30604,0.02573
492.24644,0.02563
490.18683,0.02571
488.12722,0.02559
486.06761,0.02512
484.00800,0.02437
481.94839,0.02365
479.88878,0.02343
477.82918,0.02381
475.76957,0.02470
473.70996,0.02644
471.65035,0.02953
469.59074,0.03434
467.53113,0.04182
465.47153,0.05302
463.41192,0.06742
461.35231,0.08171
459.29270,0.08939
457.23309,0.08594
455.17348,0.07510
453.11387,0.06264
451.05427,0.05044
448.99466,0.03997
446.93505,0.03236
444.87544,0.02797
442.81583,0.02656
440.75622,0.02742
438.69661,0.02944
436.63701,0.03131
434.57740,0.03081
432.51779,0.02727
430.45818,0.02273
428.39857,0.01914
426.33896,0.01725
424.27935,0.01666
422.21975,0.01622
420.16014,0.01550
418.10053,0.01519
416.04092,0.01554
413.98131,0.01614
411.92170,0.01692
409.86210,0.01776
407.80249,0.01877
405.74288,0.02045
403.68327,0.02318
401.62366,0.02681
399.56405,0.03091
