3997.70013,0.04431
3995.64052,0.04386
3993.58092,0.04332
3991.52131,0.04386
3989.46170,0.04434
3987.40209,0.04387
3985.34248,0.04327
3983.28287,0.04296
3981.22327,0.04291
3979.16366,0.04288
3977.10405,0.04270
3975.04444,0.04296
3972.98483,0.04377
3970.92522,0.04424
3968.86561,0.04380
3966.80601,0.04297
3964.74640,0.04257
3962.68679,0.04247
3960.62718,0.04206
3958.56757,0.04160
3956.50796,0.04151
3954.44835,0.04151
3952.38875,0.04155
3950.32914,0.04170
3948.26953,0.04179
3946.20992,0.04186
3944.15031,0.04194
3942.09070,0.04210
3940.03109,0.04270
3937.97149,0.04296
3935.91188,0.04232
3933.85227,0.04160
3931.79266,0.04118
3929.73305,0.04137
3927.67344,0.04195
3925.61384,0.04192
3923.55423,0.04150
3921.49462,0.04114
3919.43501,0.04085
3917.37540,0.04049
3915.31579,0.04027
3913.25618,0.04042
3911.19658,0.04051
3909.13697,0.04062
3907.07736,0.04100
3905.01775,0.04147
3902.95814,0.04165
3900.89853,0.04116
3898.83892,0.04076
3896.77932,0.04127
3894.71971,0.04163
3892.66010,0.04122
3890.60049,0.04092
3888.54088,0.04073
3886.48127,0.04015
3884.42166,0.03960
3882.36206,0.03965
3880.30245,0.03997
3878.24284,0.04029
3876.18323,0.04057
3874.12362,0.04025
3872.06401,0.03960
3870.00441,0.03937
3867.94480,0.03952
3865.88519,0.03991
3863.82558,0.04015
3861.76597,0.03995
3859.70636,0.03975
3857.64675,0.03956
3855.58715,0.03931
3853.52754,0.03928
3851.46793,0.03923
3849.40832,0.03908
3847.34871,0.03895
3845.28910,0.03864
3843.22949,0.03823
3841.16989,0.03806
3839.11028,0.03820
3837.05067,0.03873
3834.99106,0.03911
3832.93145,0.03910
3830.87184,0.03923
3828.81223,0.03945
3826.75263,0.03936
3824.69302,0.03889
3822.63341,0.03831
3820.57380,0.03806
3818.51419,0.03794
3816.45458,0.03779
3814.39498,0.03812
3812.33537,0.03843
3810.27576,0.03840
3808.21615,0.03808
3806.15654,0.03740
3804.09693,0.03667
3802.03732,0.03625
3799.97772,0.03665
3797.91811,0.03709
3795.85850,0.03705
3793.79889,0.03741
3791.73928,0.03812
3789.67967,0.03838
3787.62006,0.03819
3785.56046,0.03805
3783.50085,0.03810
3781.44124,0.03813
3779.38163,0.03801
3777.32202,0.03830
3775.26241,0.03884
3773.20280,0.03855
3771.14320,0.03756
3769.08359,0.03717
3767.02398,0.03783
3764.96437,0.03867
3762.90476,0.03863
3760.84515,0.03776
3758.78555,0.03704
3756.72594,0.03669
3754.66633,0.03608
3752.60672,0.03556
3750.54711,0.03580
3748.48750,0.03628
3746.42789,0.03674
3744.36829,0.03710
3742.30868,0.03686
3740.24907,0.03646
3738.18946,0.03630
3736.12985,0.03651
3734.07024,0.03692
3732.01063,0.03685
3729.95103,0.03621
3727.89142,0.03580
3725.83181,0.03590
3723.77220,0.03602
3721.71259,0.03589
3719.65298,0.03545
3717.59337,0.03502
3715.53377,0.03489
3713.47416,0.03513
3711.41455,0.03575
3709.35494,0.03608
3707.29533,0.03575
3705.23572,0.03529
3703.17612,0.03506
3701.11651,0.03518
3699.05690,0.03579
3696.99729,0.03627
3694.93768,0.03557
3692.87807,0.03411
3690.81846,0.03315
3688.75886,0.03303
3686.69925,0.03355
3684.63964,0.03448
3682.58003,0.03534
3680.52042,0.03545
3678.46081,0.03499
3676.40120,0.03460
3674.34160,0.03423
3672.28199,0.03424
3670.22238,0.03497
3668.16277,0.03565
3666.10316,0.03584
3664.04355,0.03597
3661.98394,0.03585
3659.92434,0.03541
3657.86473,0.03487
3655.80512,0.03421
3653.74551,0.03389
3651.68590,0.03388
3649.62629,0.03373
3647.56669,0.03371
3645.50708,0.03390
3643.44747,0.03414
3641.38786,0.03440
3639.32825,0.03411
3637.26864,0.03327
3635.20903,0.03266
3633.14943,0.03246
3631.08982,0.03217
3629.03021,0.03181
3626.97060,0.03230
3624.91099,0.03292
3622.85138,0.03242
3620.79177,0.03140
3618.73217,0.03127
3616.67256,0.03174
3614.61295,0.03211
3612.55334,0.03242
3610.49373,0.03262
3608.43412,0.03288
3606.37451,0.03307
3604.31491,0.03305
3602.25530,0.03293
3600.19569,0.03263
3598.13608,0.03249
3596.07647,0.03273
3594.01686,0.03290
3591.95726,0.03271
3589.89765,0.03219
3587.83804,0.03142
3585.77843,0.03110
3583.71882,0.03174
3581.65921,0.03254
3579.59960,0.03264
3577.54000,0.03218
3575.48039,0.03171
3573.42078,0.03153
3571.36117,0.03142
3569.30156,0.03133
3567.24195,0.03160
3565.18234,0.03201
3563.12274,0.03192
3561.06313,0.03152
3559.00352,0.03147
3556.94391,0.03202
3554.88430,0.03274
3552.82469,0.03286
3550.76508,0.03220
3548.70548,0.03177
3546.64587,0.03216
3544.58626,0.03216
3542.52665,0.03148
3540.46704,0.03120
3538.40743,0.03140
3536.34783,0.03156
3534.28822,0.03155
3532.22861,0.03160
3530.16900,0.03179
3528.10939,0.03178
3526.04978,0.03122
3523.99017,0.03060
3521.93057,0.03088
3519.87096,0.03145
3517.81135,0.03107
3515.75174,0.03003
3513.69213,0.02961
3511.63252,0.02992
3509.57291,0.02991
3507.51331,0.02959
3505.45370,0.02978
3503.39409,0.03031
3501.33448,0.03072
3499.27487,0.03079
3497.21526,0.03027
3495.15565,0.02958
3493.09605,0.02961
3491.03644,0.02991
3488.97683,0.02935
3486.91722,0.02878
3484.85761,0.02922
3482.79800,0.02973
3480.73840,0.02988
3478.67879,0.03025
3476.61918,0.03076
3474.55957,0.03061
3472.49996,0.02973
3470.44035,0.02906
3468.38074,0.02904
3466.32114,0.02944
3464.26153,0.02979
3462.20192,0.02942
3460.14231,0.02879
3458.08270,0.02880
3456.02309,0.02916
3453.96348,0.02927
3451.90388,0.02932
3449.84427,0.02920
3447.78466,0.02867
3445.72505,0.02841
3443.66544,0.02840
3441.60583,0.02818
3439.54622,0.02804
3437.48662,0.02770
3435.42701,0.02717
3433.36740,0.02729
3431.30779,0.02789
3429.24818,0.02831
3427.18857,0.02858
3425.12897,0.02866
3423.06936,0.02834
3421.00975,0.02795
3418.95014,0.02787
3416.89053,0.02786
3414.83092,0.02749
3412.77131,0.02743
3410.71171,0.02791
3408.65210,0.02790
3406.59249,0.02750
3404.53288,0.02756
3402.47327,0.02765
3400.41366,0.02725
3398.35405,0.02687
3396.29445,0.02670
3394.23484,0.02655
3392.17523,0.02665
3390.11562,0.02672
3388.05601,0.02645
3385.99640,0.02612
3383.93679,0.02573
3381.87719,0.02536
3379.81758,0.02565
3377.75797,0.02649
3375.69836,0.02701
3373.63875,0.02688
3371.57914,0.02631
3369.51954,0.02582
3367.45993,0.02578
3365.40032,0.02596
3363.34071,0.02626
3361.28110,0.02651
3359.22149,0.02648
3357.16188,0.02611
3355.10228,0.02554
3353.04267,0.02565
3350.98306,0.02639
3348.92345,0.02658
3346.86384,0.02633
3344.80423,0.02642
3342.74462,0.02659
3340.68502,0.02644
3338.62541,0.02624
3336.56580,0.02618
3334.50619,0.02614
3332.44658,0.02621
3330.38697,0.02647
3328.32736,0.02688
3326.26776,0.02745
3324.20815,0.02794
3322.14854,0.02787
3320.08893,0.02757
3318.02932,0.02780
3315.96971,0.02840
3313.91011,0.02903
3311.85050,0.02942
3309.79089,0.02947
3307.73128,0.02984
3305.67167,0.03037
3303.61206,0.03080
3301.55245,0.03141
3299.49285,0.03190
3297.43324,0.03223
3295.37363,0.03263
3293.31402,0.03293
3291.25441,0.03303
3289.19480,0.03309
3287.13519,0.03326
3285.07559,0.03347
3283.01598,0.03356
3280.95637,0.03360
3278.89676,0.03382
3276.83715,0.03419
3274.77754,0.03446
3272.71793,0.03463
3270.65833,0.03475
3268.59872,0.03491
3266.53911,0.03540
3264.47950,0.03586
3262.41989,0.03597
3260.36028,0.03597
3258.30068,0.03604
3256.24107,0.03625
3254.18146,0.03638
3252.12185,0.03652
3250.06224,0.03701
3248.00263,0.03740
3245.94302,0.03724
3243.88342,0.03733
3241.82381,0.03833
3239.76420,0.03957
3237.70459,0.04042
3235.64498,0.04089
3233.58537,0.04107
3231.52576,0.04123
3229.46616,0.04209
3227.40655,0.04390
3225.34694,0.04551
3223.28733,0.04601
3221.22772,0.04624
3219.16811,0.04709
3217.10850,0.04836
3215.04890,0.04990
3212.98929,0.05139
3210.92968,0.05281
3208.87007,0.05448
3206.81046,0.05648
3204.75085,0.05872
3202.69125,0.06082
3200.63164,0.06290
3198.57203,0.06522
3196.51242,0.06748
3194.45281,0.06987
3192.39320,0.07284
3190.33359,0.07626
3188.27399,0.07991
3186.21438,0.08377
3184.15477,0.08742
3182.09516,0.09076
3180.03555,0.09446
3177.97594,0.09835
3175.91633,0.10204
3173.85673,0.10550
3171.79712,0.10846
3169.73751,0.11133
3167.67790,0.11416
3165.61829,0.11641
3163.55868,0.11859
3161.49907,0.12096
3159.43947,0.12280
3157.37986,0.12405
3155.32025,0.12484
3153.26064,0.12496
3151.20103,0.12486
3149.14142,0.12479
3147.08182,0.12442
3145.02221,0.12335
3142.96260,0.12172
3140.90299,0.12014
3138.84338,0.11865
3136.78377,0.11687
3134.72416,0.11478
3132.66456,0.11274
3130.60495,0.11059
3128.54534,0.10809
3126.48573,0.10557
3124.42612,0.10348
3122.36651,0.10187
3120.30690,0.10052
3118.24730,0.09933
3116.18769,0.09809
3114.12808,0.09670
3112.06847,0.09541
3110.00886,0.09414
3107.94925,0.09291
3105.88965,0.09182
3103.83004,0.09079
3101.77043,0.08977
3099.71082,0.08898
3097.65121,0.08850
3095.59160,0.08835
3093.53199,0.08856
3091.47239,0.08885
3089.41278,0.08882
3087.35317,0.08879
3085.29356,0.08896
3083.23395,0.08899
3081.17434,0.08900
3079.11473,0.08925
3077.05513,0.08967
3074.99552,0.09024
3072.93591,0.09088
3070.87630,0.09171
3068.81669,0.09282
3066.75708,0.09377
3064.69747,0.09442
3062.63787,0.09510
3060.57826,0.09590
3058.51865,0.09670
3056.45904,0.09724
3054.39943,0.09759
3052.33982,0.09806
3050.28022,0.09845
3048.22061,0.09876
3046.16100,0.09931
3044.10139,0.09993
3042.04178,0.10041
3039.98217,0.10064
3037.92256,0.10048
3035.86296,0.10020
3033.80335,0.10006
3031.74374,0.10011
3029.68413,0.10053
3027.62452,0.10115
3025.56491,0.10158
3023.50530,0.10183
3021.44570,0.10204
3019.38609,0.10240
3017.32648,0.10358
3015.26687,0.10627
3013.20726,0.11036
3011.14765,0.11565
3009.08804,0.12117
3007.02844,0.12383
3004.96883,0.12217
3002.90922,0.11865
3000.84961,0.11571
2998.79000,0.11372
2996.73039,0.11250
2994.67079,0.11191
2992.61118,0.11168
2990.55157,0.11162
2988.49196,0.11171
2986.43235,0.11204
2984.37274,0.11283
2982.31313,0.11421
2980.25353,0.11612
2978.19392,0.11885
2976.13431,0.12255
2974.07470,0.12591
2972.01509,0.12776
2969.95548,0.12824
2967.89587,0.12783
2965.83627,0.12712
2963.77666,0.12666
2961.71705,0.12636
2959.65744,0.12601
2957.59783,0.12572
2955.53822,0.12533
2953.47861,0.12495
2951.41901,0.12488
2949.35940,0.12460
2947.29979,0.12417
2945.24018,0.12445
2943.18057,0.12522
2941.12096,0.12562
2939.06136,0.12564
2937.00175,0.12573
2934.94214,0.12617
2932.88253,0.12675
2930.82292,0.12721
2928.76331,0.12785
2926.70370,0.12894
2924.64410,0.13023
2922.58449,0.13134
2920.52488,0.13220
2918.46527,0.13322
2916.40566,0.13451
2914.34605,0.13572
2912.28644,0.13657
2910.22684,0.13714
2908.16723,0.13795
2906.10762,0.13912
2904.04801,0.14009
2901.98840,0.14086
2899.92879,0.14195
2897.86918,0.14299
2895.80958,0.14335
2893.74997,0.14342
2891.69036,0.14383
2889.63075,0.14429
2887.57114,0.14427
2885.51153,0.14416
2883.45193,0.14440
2881.39232,0.14492
2879.33271,0.14538
2877.27310,0.14545
2875.21349,0.14535
2873.15388,0.14538
2871.09427,0.14540
2869.03467,0.14524
2866.97506,0.14510
2864.91545,0.14503
2862.85584,0.14498
2860.79623,0.14489
2858.73662,0.14464
2856.67701,0.14418
2854.61741,0.14380
2852.55780,0.14380
2850.49819,0.14380
2848.43858,0.14359
2846.37897,0.14372
2844.31936,0.14429
2842.25975,0.14489
2840.20015,0.14545
2838.14054,0.14619
2836.08093,0.14702
2834.02132,0.14771
2831.96171,0.14849
2829.90210,0.14964
2827.84250,0.15081
2825.78289,0.15161
2823.72328,0.15217
2821.66367,0.15261
2819.60406,0.15276
2817.54445,0.15254
2815.48484,0.15172
2813.42524,0.15063
2811.36563,0.14993
2809.30602,0.14929
2807.24641,0.14843
2805.18680,0.14773
2803.12719,0.14711
2801.06758,0.14646
2799.00798,0.14572
2796.94837,0.14488
2794.88876,0.14434
2792.82915,0.14401
2790.76954,0.14355
2788.70993,0.14293
2786.65032,0.14209
2784.59072,0.14124
2782.53111,0.14055
2780.47150,0.13986
2778.41189,0.13938
2776.35228,0.13922
2774.29267,0.13881
2772.23307,0.13826
2770.17346,0.13805
2768.11385,0.13788
2766.05424,0.13767
2763.99463,0.13763
2761.93502,0.13761
2759.87541,0.13746
2757.81581,0.13728
2755.75620,0.13713
2753.69659,0.13695
2751.63698,0.13683
2749.57737,0.13670
2747.51776,0.13619
2745.45815,0.13555
2743.39855,0.13523
2741.33894,0.13498
2739.27933,0.13460
2737.21972,0.13450
2735.16011,0.13473
2733.10050,0.13486
2731.04089,0.13487
2728.98129,0.13512
2726.92168,0.13581
2724.86207,0.13667
2722.80246,0.13740
2720.74285,0.13793
2718.68324,0.13841
2716.62364,0.13888
2714.56403,0.13923
2712.50442,0.13956
2710.44481,0.13970
2708.38520,0.13959
2706.32559,0.13975
2704.26598,0.14021
2702.20638,0.14035
2700.14677,0.14003
2698.08716,0.13975
2696.02755,0.13981
2693.96794,0.13981
2691.90833,0.13939
2689.84872,0.13862
2687.78912,0.13756
2685.72951,0.13631
2683.66990,0.13519
2681.61029,0.13437
2679.55068,0.13358
2677.49107,0.13245
2675.43146,0.13113
2673.37186,0.12993
2671.31225,0.12890
2669.25264,0.12809
2667.19303,0.12745
2665.13342,0.12691
2663.07381,0.12651
2661.01421,0.12621
2658.95460,0.12611
2656.89499,0.12640
2654.83538,0.12682
2652.77577,0.12714
2650.71616,0.12731
2648.65655,0.12734
2646.59695,0.12754
2644.53734,0.12829
2642.47773,0.12948
2640.41812,0.13079
2638.35851,0.13212
2636.29890,0.13344
2634.23929,0.13466
2632.17969,0.13575
2630.12008,0.13670
2628.06047,0.13764
2626.00086,0.13859
2623.94125,0.13945
2621.88164,0.14036
2619.82203,0.14136
2617.76243,0.14240
2615.70282,0.14335
2613.64321,0.14398
2611.58360,0.14422
2609.52399,0.14442
2607.46438,0.14473
2605.40478,0.14477
2603.34517,0.14435
2601.28556,0.14380
2599.22595,0.14342
2597.16634,0.14329
2595.10673,0.14310
2593.04712,0.14239
2590.98752,0.14145
2588.92791,0.14111
2586.86830,0.14125
2584.80869,0.14081
2582.74908,0.13973
2580.68947,0.13883
2578.62986,0.13791
2576.57026,0.13649
2574.51065,0.13508
2572.45104,0.13405
2570.39143,0.13332
2568.33182,0.13280
2566.27221,0.13216
2564.21260,0.13107
2562.15300,0.12975
2560.09339,0.12865
2558.03378,0.12771
2555.97417,0.12697
2553.91456,0.12659
2551.85495,0.12650
2549.79535,0.12661
2547.73574,0.12658
2545.67613,0.12614
2543.61652,0.12581
2541.55691,0.12638
2539.49730,0.12729
2537.43769,0.12751
2535.37809,0.12729
2533.31848,0.12758
2531.25887,0.12844
2529.19926,0.12912
2527.13965,0.12936
2525.08004,0.12968
2523.02043,0.13036
2520.96083,0.13089
2518.90122,0.13101
2516.84161,0.13091
2514.78200,0.13057
2512.72239,0.12999
2510.66278,0.12919
2508.60317,0.12821
2506.54357,0.12723
2504.48396,0.12640
2502.42435,0.12586
2500.36474,0.12541
2498.30513,0.12457
2496.24552,0.12356
2494.18592,0.12268
2492.12631,0.12157
2490.06670,0.12028
2488.00709,0.11946
2485.94748,0.11896
2483.88787,0.11806
2481.82826,0.11686
2479.76866,0.11602
2477.70905,0.11538
2475.64944,0.11464
2473.58983,0.11409
2471.53022,0.11353
2469.47061,0.11258
2467.41100,0.11136
2465.35140,0.11031
2463.29179,0.10988
2461.23218,0.10980
2459.17257,0.10940
2457.11296,0.10870
2455.05335,0.10808
2452.99374,0.10750
2450.93414,0.10682
2448.87453,0.10614
2446.81492,0.10531
2444.75531,0.10433
2442.69570,0.10367
2440.63609,0.10332
2438.57649,0.10282
2436.51688,0.10216
2434.45727,0.10179
2432.39766,0.10177
2430.33805,0.10174
2428.27844,0.10126
2426.21883,0.10042
2424.15923,0.09972
2422.09962,0.09949
2420.04001,0.09965
2417.98040,0.09962
2415.92079,0.09908
2413.86118,0.09844
2411.80157,0.09797
2409.74197,0.09741
2407.68236,0.09668
2405.62275,0.09594
2403.56314,0.09513
2401.50353,0.09427
2399.44392,0.09351
2397.38431,0.09281
2395.32471,0.09198
2393.26510,0.09096
2391.20549,0.08988
2389.14588,0.08878
2387.08627,0.08757
2385.02666,0.08642
2382.96706,0.08558
2380.90745,0.08497
2378.84784,0.08440
2376.78823,0.08383
2374.72862,0.08321
2372.66901,0.08234
2370.60940,0.08145
2368.54980,0.08113
2366.49019,0.08117
2364.43058,0.08077
2362.37097,0.07984
2360.31136,0.07928
2358.25175,0.07924
2356.19214,0.07860
2354.13254,0.07748
2352.07293,0.07693
2350.01332,0.07666
2347.95371,0.07618
2345.89410,0.07582
2343.83449,0.07582
2341.77488,0.07561
2339.71528,0.07482
2337.65567,0.07392
2335.59606,0.07370
2333.53645,0.07391
2331.47684,0.07360
2329.41723,0.07302
2327.35763,0.07323
2325.29802,0.07393
2323.23841,0.07366
2321.17880,0.07224
2319.11919,0.07103
2317.05958,0.07049
2314.99997,0.07000
2312.94037,0.06934
2310.88076,0.06878
2308.82115,0.06842
2306.76154,0.06795
2304.70193,0.06714
2302.64232,0.06616
2300.58271,0.06543
2298.52311,0.06517
2296.46350,0.06508
2294.40389,0.06490
2292.34428,0.06462
2290.28467,0.06434
2288.22506,0.06410
2286.16545,0.06364
2284.10585,0.06297
2282.04624,0.06254
2279.98663,0.06237
2277.92702,0.06179
2275.86741,0.06098
2273.80780,0.06065
2271.74820,0.06065
2269.68859,0.06048
2267.62898,0.06034
2265.56937,0.06057
2263.50976,0.06053
2261.45015,0.05947
2259.39054,0.05793
2257.33094,0.05671
2255.27133,0.05605
2253.21172,0.05592
2251.15211,0.05628
2249.09250,0.05674
2247.03289,0.05686
2244.97328,0.05652
2242.91368,0.05532
2240.85407,0.05405
2238.79446,0.05402
2236.73485,0.05415
2234.67524,0.05331
2232.61563,0.05249
2230.55602,0.05268
2228.49642,0.05327
2226.43681,0.05348
2224.37720,0.05302
2222.31759,0.05220
2220.25798,0.05152
2218.19837,0.05042
2216.13877,0.04905
2214.07916,0.04856
2212.01955,0.04894
2209.95994,0.04923
2207.90033,0.04973
2205.84072,0.05085
2203.78111,0.05115
2201.72151,0.05039
2199.66190,0.04999
2197.60229,0.04991
2195.54268,0.04952
2193.48307,0.04914
2191.42346,0.04901
2189.36385,0.04884
2187.30425,0.04791
2185.24464,0.04614
2183.18503,0.04463
2181.12542,0.04423
2179.06581,0.04424
2177.00620,0.04378
2174.94659,0.04346
2172.88699,0.04391
2170.82738,0.04496
2168.76777,0.04554
2166.70816,0.04544
2164.64855,0.04550
2162.58894,0.04578
2160.52934,0.04531
2158.46973,0.04325
2156.41012,0.04092
2154.35051,0.04035
2152.29090,0.04195
2150.23129,0.04480
2148.17168,0.04756
2146.11208,0.04910
2144.05247,0.04939
2141.99286,0.04945
2139.93325,0.05015
2137.87364,0.05090
2135.81403,0.05138
2133.75442,0.05250
2131.69482,0.05425
2129.63521,0.05565
2127.57560,0.05611
2125.51599,0.05612
2123.45638,0.05651
2121.39677,0.05722
2119.33716,0.05761
2117.27756,0.05769
2115.21795,0.05789
2113.15834,0.05833
2111.09873,0.05835
2109.03912,0.05767
2106.97951,0.05730
2104.91991,0.05685
2102.86030,0.05549
2100.80069,0.05453
2098.74108,0.05450
2096.68147,0.05391
2094.62186,0.05254
2092.56225,0.05157
2090.50265,0.05133
2088.44304,0.05141
2086.38343,0.05130
2084.32382,0.05054
2082.26421,0.04975
2080.20460,0.04969
2078.14499,0.04938
2076.08539,0.04828
2074.02578,0.04717
2071.96617,0.04595
2069.90656,0.04461
2067.84695,0.04402
2065.78734,0.04385
2063.72773,0.04329
2061.66813,0.04251
2059.60852,0.04188
2057.54891,0.04181
2055.48930,0.04195
2053.42969,0.04169
2051.37008,0.04112
2049.31048,0.03998
2047.25087,0.03846
2045.19126,0.03726
2043.13165,0.03676
2041.07204,0.03683
2039.01243,0.03663
2036.95282,0.03610
2034.89322,0.03560
2032.83361,0.03431
2030.77400,0.03220
2028.71439,0.03133
2026.65478,0.03194
2024.59517,0.03196
2022.53556,0.03098
2020.47596,0.03031
2018.41635,0.03066
2016.35674,0.03112
2014.29713,0.03096
2012.23752,0.03051
2010.17791,0.02986
2008.11830,0.02889
2006.05870,0.02841
2003.99909,0.02868
2001.93948,0.02891
1999.87987,0.02897
1997.82026,0.02911
1995.76065,0.02918
1993.70105,0.02877
1991.64144,0.02819
1989.58183,0.02832
1987.52222,0.02825
1985.46261,0.02717
1983.40300,0.02672
1981.34339,0.02751
1979.28379,0.02737
1977.22418,0.02590
1975.16457,0.02513
1973.10496,0.02521
1971.04535,0.02500
1968.98574,0.02381
1966.92613,0.02221
1964.86653,0.02188
1962.80692,0.02245
1960.74731,0.02280
1958.68770,0.02341
1956.62809,0.02415
1954.56848,0.02449
1952.50887,0.02482
1950.44927,0.02504
1948.38966,0.02487
1946.33005,0.02463
1944.27044,0.02415
1942.21083,0.02394
1940.15122,0.02442
1938.09162,0.02485
1936.03201,0.02500
1933.97240,0.02479
1931.91279,0.02433
1929.85318,0.02387
1927.79357,0.02331
1925.73396,0.02298
1923.67436,0.02344
1921.61475,0.02433
1919.55514,0.02455
1917.49553,0.02426
1915.43592,0.02383
1913.37631,0.02308
1911.31670,0.02268
1909.25710,0.02296
1907.19749,0.02302
1905.13788,0.02259
1903.07827,0.02245
1901.01866,0.02259
1898.95905,0.02248
1896.89944,0.02226
1894.83984,0.02212
1892.78023,0.02202
1890.72062,0.02214
1888.66101,0.02240
1886.60140,0.02240
1884.54179,0.02224
1882.48219,0.02204
1880.42258,0.02181
1878.36297,0.02159
1876.30336,0.02135
1874.24375,0.02125
1872.18414,0.02129
1870.12453,0.02138
1868.06493,0.02149
1866.00532,0.02119
1863.94571,0.02077
1861.88610,0.02075
1859.82649,0.02089
1857.76688,0.02094
1855.70727,0.02100
1853.64767,0.02111
1851.58806,0.02124
1849.52845,0.02136
1847.46884,0.02141
1845.40923,0.02124
1843.34962,0.02114
1841.29002,0.02126
1839.23041,0.02129
1837.17080,0.02123
1835.11119,0.02134
1833.05158,0.02157
1830.99197,0.02171
1828.93236,0.02164
1826.87276,0.02141
1824.81315,0.02119
1822.75354,0.02082
1820.69393,0.02019
1818.63432,0.01978
1816.57471,0.01994
1814.51510,0.02030
1812.45550,0.02044
1810.39589,0.02024
1808.33628,0.01993
1806.27667,0.01980
1804.21706,0.01981
1802.15745,0.01978
1800.09784,0.01964
1798.03824,0.01950
1795.97863,0.01949
1793.91902,0.01947
1791.85941,0.01906
1789.79980,0.01837
1787.74019,0.01801
1785.68059,0.01799
1783.62098,0.01788
1781.56137,0.01761
1779.50176,0.01747
1777.44215,0.01745
1775.38254,0.01735
1773.32293,0.01724
1771.26333,0.01723
1769.20372,0.01718
1767.14411,0.01708
1765.08450,0.01698
1763.02489,0.01692
1760.96528,0.01687
1758.90567,0.01676
1756.84607,0.01669
1754.78646,0.01681
1752.72685,0.01684
1750.66724,0.01661
1748.60763,0.01645
1746.54802,0.01656
1744.48841,0.01665
1742.42881,0.01653
1740.36920,0.01639
1738.30959,0.01644
1736.24998,0.01651
1734.19037,0.01661
1732.13076,0.01686
1730.07116,0.01707
1728.01155,0.01721
1725.95194,0.01724
1723.89233,0.01709
1721.83272,0.01685
1719.77311,0.01667
1717.71350,0.01660
1715.65390,0.01665
1713.59429,0.01678
1711.53468,0.01689
1709.47507,0.01689
1707.41546,0.01677
1705.35585,0.01667
1703.29624,0.01659
1701.23664,0.01649
1699.17703,0.01651
1697.11742,0.01663
1695.05781,0.01668
1692.99820,0.01662
1690.93859,0.01642
1688.87898,0.01624
1686.81938,0.01623
1684.75977,0.01636
1682.70016,0.01656
1680.64055,0.01670
1678.58094,0.01694
1676.52133,0.01736
1674.46173,0.01791
1672.40212,0.01846
1670.34251,0.01929
1668.28290,0.02054
1666.22329,0.02179
1664.16368,0.02312
1662.10407,0.02486
1660.04447,0.02691
1657.98486,0.02896
1655.92525,0.03076
1653.86564,0.03341
1651.80603,0.03787
1649.74642,0.04133
1647.68681,0.04472
1645.62721,0.04940
1643.56760,0.05405
1641.50799,0.05835
1639.44838,0.06259
1637.38877,0.06724
1635.32916,0.07341
1633.26955,0.07944
1631.20995,0.08440
1629.15034,0.08978
1627.09073,0.09580
1625.03112,0.10206
1622.97151,0.10923
1620.91190,0.11668
1618.85230,0.12404
1616.79269,0.13334
1614.73308,0.14315
1612.67347,0.15059
1610.61386,0.15605
1608.55425,0.15933
1606.49464,0.16055
1604.43504,0.16064
1602.37543,0.16033
1600.31582,0.16000
1598.25621,0.15992
1596.19660,0.16030
1594.13699,0.16115
1592.07738,0.16245
1590.01778,0.16443
1587.95817,0.16697
1585.89856,0.16943
1583.83895,0.17121
1581.77934,0.17204
1579.71973,0.17182
1577.66012,0.17043
1575.60052,0.16771
1573.54091,0.16435
1571.48130,0.16051
1569.42169,0.15563
1567.36208,0.15061
1565.30247,0.14587
1563.24287,0.14127
1561.18326,0.13682
1559.12365,0.13120
1557.06404,0.12602
1555.00443,0.12274
1552.94482,0.11994
1550.88521,0.11796
1548.82561,0.11733
1546.76600,0.11829
1544.70639,0.12105
1542.64678,0.12555
1540.58717,0.13226
1538.52756,0.14019
1536.46795,0.14585
1534.40835,0.15091
1532.34874,0.15676
1530.28913,0.16168
1528.22952,0.16562
1526.16991,0.16947
1524.11030,0.17295
1522.05069,0.17631
1519.99109,0.17959
1517.93148,0.18213
1515.87187,0.18422
1513.81226,0.18607
1511.75265,0.18800
1509.69304,0.19047
1507.63344,0.19476
1505.57383,0.20137
1503.51422,0.20605
1501.45461,0.20819
1499.39500,0.20851
1497.33539,0.20673
1495.27578,0.20301
1493.21618,0.19845
1491.15657,0.19283
1489.09696,0.18582
1487.03735,0.17878
1484.97774,0.17220
1482.91813,0.16576
1480.85852,0.15945
1478.79892,0.15353
1476.73931,0.14786
1474.67970,0.14231
1472.62009,0.13672
1470.56048,0.13152
1468.50087,0.12721
1466.44126,0.12315
1464.38166,0.11924
1462.32205,0.11641
1460.26244,0.11475
1458.20283,0.11286
1456.14322,0.10962
1454.08361,0.10671
1452.02401,0.10519
1449.96440,0.10595
1447.90479,0.11154
1445.84518,0.12183
1443.78557,0.12935
1441.72596,0.12640
1439.66635,0.11536
1437.60675,0.10355
1435.54714,0.09520
1433.48753,0.09149
1431.42792,0.09092
1429.36831,0.09321
1427.30870,0.09846
1425.24909,0.10681
1423.18949,0.11796
1421.12988,0.13067
1419.07027,0.14602
1417.01066,0.16157
1414.95105,0.17353
1412.89144,0.18263
1410.83183,0.18889
1408.77223,0.19201
1406.71262,0.19243
1404.65301,0.19102
1402.59340,0.18866
1400.53379,0.18599
1398.47418,0.18330
1396.41458,0.18062
1394.35497,0.17780
1392.29536,0.17508
1390.23575,0.17243
1388.17614,0.16940
1386.11653,0.16618
1384.05692,0.16299
1381.99732,0.15941
1379.93771,0.15528
1377.87810,0.15082
1375.81849,0.14596
1373.75888,0.14057
1371.69927,0.13508
1369.63966,0.12976
1367.58006,0.12460
1365.52045,0.11968
1363.46084,0.11484
1361.40123,0.11027
1359.34162,0.10626
1357.28201,0.10270
1355.22240,0.09942
1353.16280,0.09655
1351.10319,0.09424
1349.04358,0.09267
1346.98397,0.09233
1344.92436,0.09417
1342.86475,0.09968
1340.80515,0.11096
1338.74554,0.12916
1336.68593,0.15125
1334.62632,0.17130
1332.56671,0.18368
1330.50710,0.18565
1328.44749,0.17963
1326.38789,0.17062
1324.32828,0.16210
1322.26867,0.15547
1320.20906,0.15119
1318.14945,0.14927
1316.08984,0.14896
1314.03023,0.14888
1311.97063,0.14795
1309.91102,0.14580
1307.85141,0.14260
1305.79180,0.13872
1303.73219,0.13456
1301.67258,0.13052
1299.61297,0.12700
1297.55337,0.12401
1295.49376,0.12123
1293.43415,0.11855
1291.37454,0.11607
1289.31493,0.11371
1287.25532,0.11141
1285.19572,0.10934
1283.13611,0.10752
1281.07650,0.10577
1279.01689,0.10395
1276.95728,0.10216
1274.89767,0.10056
1272.83806,0.09916
1270.77846,0.09773
1268.71885,0.09619
1266.65924,0.09471
1264.59963,0.09328
1262.54002,0.09187
1260.48041,0.09059
1258.42080,0.08951
1256.36120,0.08857
1254.30159,0.08763
1252.24198,0.08671
1250.18237,0.08587
1248.12276,0.08500
1246.06315,0.08408
1244.00354,0.08319
1241.94394,0.08236
1239.88433,0.08153
1237.82472,0.08073
1235.76511,0.08002
1233.70550,0.07929
1231.64589,0.07849
1229.58629,0.07770
1227.52668,0.07700
1225.46707,0.07637
1223.40746,0.07570
1221.34785,0.07495
1219.28824,0.07417
1217.22863,0.07349
1215.16903,0.07293
1213.10942,0.07236
1211.04981,0.07186
1208.99020,0.07144
1206.93059,0.07093
1204.87098,0.07040
1202.81137,0.06992
1200.75177,0.06948
1198.69216,0.06898
1196.63255,0.06841
1194.57294,0.06782
1192.51333,0.06714
1190.45372,0.06630
1188.39411,0.06548
1186.33451,0.06481
1184.27490,0.06418
1182.21529,0.06354
1180.15568,0.06288
1178.09607,0.06222
1176.03646,0.06156
1173.97686,0.06083
1171.91725,0.06010
1169.85764,0.05944
1167.79803,0.05883
1165.73842,0.05829
1163.67881,0.05782
1161.61920,0.05733
1159.55960,0.05681
1157.49999,0.05626
1155.44038,0.05569
1153.38077,0.05514
1151.32116,0.05478
1149.26155,0.05469
1147.20194,0.05484
1145.14234,0.05536
1143.08273,0.05668
1141.02312,0.05918
1138.96351,0.06294
1136.90390,0.06741
1134.84429,0.07141
1132.78468,0.07376
1130.72508,0.07401
1128.66547,0.07243
1126.60586,0.06998
1124.54625,0.06786
1122.48664,0.06699
1120.42703,0.06807
1118.36743,0.07133
1116.30782,0.07616
1114.24821,0.08116
1112.18860,0.08464
1110.12899,0.08556
1108.06938,0.08409
1106.00977,0.08123
1103.95017,0.07793
1101.89056,0.07466
1099.83095,0.07161
1097.77134,0.06885
1095.71173,0.06642
1093.65212,0.06418
1091.59251,0.06212
1089.53291,0.06035
1087.47330,0.05889
1085.41369,0.05768
1083.35408,0.05659
1081.29447,0.05550
1079.23486,0.05438
1077.17525,0.05332
1075.11565,0.05237
1073.05604,0.05161
1070.99643,0.05096
1068.93682,0.05033
1066.87721,0.04975
1064.81760,0.04923
1062.75800,0.04872
1060.69839,0.04829
1058.63878,0.04797
1056.57917,0.04774
1054.51956,0.04755
1052.45995,0.04732
1050.40034,0.04717
1048.34074,0.04732
1046.28113,0.04780
1044.22152,0.04871
1042.16191,0.05045
1040.10230,0.05374
1038.04269,0.05898
1035.98308,0.06492
1033.92348,0.06879
1031.86387,0.06864
1029.80426,0.06530
1027.74465,0.06097
1025.68504,0.05704
1023.62543,0.05393
1021.56582,0.05163
1019.50622,0.04982
1017.44661,0.04831
1015.38700,0.04716
1013.32739,0.04629
1011.26778,0.04547
1009.20817,0.04465
1007.14857,0.04389
1005.08896,0.04318
1003.02935,0.04256
1000.96974,0.04204
998.91013,0.04149
996.85052,0.04088
994.79091,0.04027
992.73131,0.03973
990.67170,0.03934
988.61209,0.03897
986.55248,0.03852
984.49287,0.03811
982.43326,0.03771
980.37365,0.03729
978.31405,0.03690
976.25444,0.03643
974.19483,0.03584
972.13522,0.03531
970.07561,0.03483
968.01600,0.03433
965.95639,0.03377
963.89679,0.03319
961.83718,0.03265
959.77757,0.03220
957.71796,0.03184
955.65835,0.03149
953.59874,0.03101
951.53914,0.03047
949.47953,0.02999
947.41992,0.02958
945.36031,0.02915
943.30070,0.02876
941.24109,0.02845
939.18148,0.02808
937.12188,0.02758
935.06227,0.02717
933.00266,0.02704
930.94305,0.02719
928.88344,0.02763
926.82383,0.02845
924.76422,0.02985
922.70462,0.03235
920.64501,0.03683
918.58540,0.04420
916.52579,0.05525
914.46618,0.06980
912.40657,0.08517
910.34696,0.09659
908.28736,0.10077
906.22775,0.09812
904.16814,0.09171
902.10853,0.08515
900.04892,0.08193
897.98931,0.08572
895.92971,0.09802
893.87010,0.11357
891.81049,0.12186
889.75088,0.11779
887.69127,0.10629
885.63166,0.09413
883.57205,0.08419
881.51245,0.07650
879.45284,0.07040
877.39323,0.06555
875.33362,0.06171
873.27401,0.05846
871.21440,0.05553
869.15479,0.05301
867.09519,0.05084
865.03558,0.04894
862.97597,0.04748
860.91636,0.04629
858.85675,0.04495
856.79714,0.04368
854.73753,0.04275
852.67793,0.04193
850.61832,0.04104
848.55871,0.04013
846.49910,0.03932
844.43949,0.03863
842.37988,0.03794
840.32028,0.03723
838.26067,0.03651
836.20106,0.03582
834.14145,0.03520
832.08184,0.03467
830.02223,0.03409
827.96262,0.03349
825.90302,0.03301
823.84341,0.03264
821.78380,0.03221
819.72419,0.03173
817.66458,0.03127
815.60497,0.03074
813.54536,0.03018
811.48576,0.02974
809.42615,0.02944
807.36654,0.02924
805.30693,0.02894
803.24732,0.02841
801.18771,0.02784
799.12810,0.02743
797.06850,0.02722
795.00889,0.02702
792.94928,0.02676
790.88967,0.02654
788.83006,0.02626
786.77045,0.02583
784.71085,0.02542
782.65124,0.02506
780.59163,0.02463
778.53202,0.02427
776.47241,0.02406
774.41280,0.02387
772.35319,0.02359
770.29359,0.02322
768.23398,0.02278
766.17437,0.02238
764.11476,0.02207
762.05515,0.02180
759.99554,0.02149
757.93593,0.02121
755.87633,0.02107
753.81672,0.02092
751.75711,0.02063
749.69750,0.02027
747.63789,0.01991
745.57828,0.01959
743.51867,0.01939
741.45907,0.01929
739.39946,0.01916
737.33985,0.01883
735.28024,0.01837
733.22063,0.01795
731.16102,0.01762
729.10142,0.01742
727.04181,0.01736
724.98220,0.01738
722.92259,0.01739
720.86298,0.01746
718.80337,0.01781
716.74376,0.01852
714.68416,0.01963
712.62455,0.02140
710.56494,0.02438
708.50533,0.02907
706.44572,0.03585
704.38611,0.04456
702.32650,0.05400
700.26690,0.06252
698.20729,0.06887
696.14768,0.07256
694.08807,0.07369
692.02846,0.07270
689.96885,0.07024
687.90924,0.06703
685.84964,0.06365
683.79003,0.06027
681.73042,0.05703
679.67081,0.05401
677.61120,0.05106
675.55159,0.04825
673.49199,0.04579
671.43238,0.04375
669.37277,0.04190
667.31316,0.03991
665.25355,0.03820
663.19394,0.03668
661.13433,0.03515
659.07473,0.03379
657.01512,0.03249
654.95551,0.03115
652.89590,0.02997
650.83629,0.02903
648.77668,0.02816
646.71707,0.02726
644.65747,0.02642
642.59786,0.02556
640.53825,0.02470
638.47864,0.02406
636.41903,0.02366
634.35942,0.02337
632.29981,0.02317
630.24021,0.02294
628.18060,0.02267
626.12099,0.02246
624.06138,0.02252
622.00177,0.02301
619.94216,0.02410
617.88256,0.02601
615.82295,0.02917
613.76334,0.03411
611.70373,0.04068
609.64412,0.04758
607.58451,0.05261
605.52490,0.05398
603.46530,0.05172
601.40569,0.04736
599.34608,0.04245
597.28647,0.03792
595.22686,0.03420
593.16725,0.03130
591.10764,0.02914
589.04804,0.02754
586.98843,0.02601
584.92882,0.02438
582.86921,0.02316
580.80960,0.02246
578.74999,0.02178
576.69039,0.02083
574.63078,0.01999
572.57117,0.01962
570.51156,0.01949
568.45195,0.01937
566.39234,0.01926
564.33273,0.01914
562.27313,0.01898
560.21352,0.01891
558.15391,0.01907
556.09430,0.01943
554.03469,0.01975
551.97508,0.01989
549.91547,0.01997
547.85587,0.02015
545.79626,0.02055
543.73665,0.02127
541.67704,0.02244
539.61743,0.02407
537.55782,0.02610
535.49821,0.02865
533.43861,0.03175
531.37900,0.03508
529.31939,0.03849
527.25978,0.04198
525.20017,0.04523
523.14056,0.04779
521.08096,0.04975
519.02135,0.05167
516.96174,0.05386
514.90213,0.05623
512.84252,0.05910
510.78291,0.06275
508.72330,0.06692
506.66370,0.07131
504.60409,0.07544
502.54448,0.07860
500.48487,0.07989
498.42526,0.07890
496.36565,0.07644
494.30604,0.07310
492.24644,0.06866
490.18683,0.06325
488.12722,0.05766
486.06761,0.05256
484.00800,0.04818
481.94839,0.04441
479.88878,0.04122
477.82918,0.03863
475.76957,0.03628
473.70996,0.03387
471.65035,0.03159
469.59074,0.02971
467.53113,0.02817
465.47153,0.02689
463.41192,0.02566
461.35231,0.02452
459.29270,0.02375
457.23309,0.02312
455.17348,0.02240
453.11387,0.02161
451.05427,0.02075
448.99466,0.02009
446.93505,0.01972
444.87544,0.01938
442.81583,0.01891
440.75622,0.01839
438.69661,0.01784
436.63701,0.01733
434.57740,0.01689
432.51779,0.01642
430.45818,0.01610
428.39857,0.01593
426.33896,0.01572
424.27935,0.01547
422.21975,0.01489
420.16014,0.01409
418.10053,0.01406
416.04092,0.01471
413.98131,0.01507
411.92170,0.01516
409.86210,0.01549
407.80249,0.01608
405.74288,0.01667
403.68327,0.01696
401.62366,0.01691
399.56405,0.01643
