3997.70013,0.02435
3995.64052,0.02460
3993.58092,0.02550
3991.52131,0.02594
3989.46170,0.02556
3987.40209,0.02531
3985.34248,0.02595
3983.28287,0.02650
3981.22327,0.02643
3979.16366,0.02639
3977.10405,0.02659
3975.04444,0.02674
3972.98483,0.02678
3970.92522,0.02690
3968.86561,0.02657
3966.80601,0.02567
3964.74640,0.02496
3962.68679,0.02479
3960.62718,0.02529
3958.56757,0.02617
3956.50796,0.02666
3954.44835,0.02646
3952.38875,0.02582
3950.32914,0.02502
3948.26953,0.02455
3946.20992,0.02427
3944.15031,0.02357
3942.09070,0.02332
3940.03109,0.02439
3937.97149,0.02563
3935.91188,0.02588
3933.85227,0.02547
3931.79266,0.02522
3929.73305,0.02520
3927.67344,0.02481
3925.61384,0.02411
3923.55423,0.02365
3921.49462,0.02347
3919.43501,0.02352
3917.37540,0.02366
3915.31579,0.02338
3913.25618,0.02328
3911.19658,0.02392
3909.13697,0.02458
3907.07736,0.02524
3905.01775,0.02606
3902.95814,0.02586
3900.89853,0.02493
3898.83892,0.02457
3896.77932,0.02465
3894.71971,0.02466
3892.66010,0.02459
3890.60049,0.02449
3888.54088,0.02404
3886.48127,0.02335
3884.42166,0.02304
3882.36206,0.02333
3880.30245,0.02391
3878.24284,0.02424
3876.18323,0.02402
3874.12362,0.02350
3872.06401,0.02333
3870.00441,0.02343
3867.94480,0.02303
3865.88519,0.02281
3863.82558,0.02356
3861.76597,0.02424
3859.70636,0.02408
3857.64675,0.02374
3855.58715,0.02378
3853.52754,0.02428
3851.46793,0.02428
3849.40832,0.02396
3847.34871,0.02421
3845.28910,0.02488
3843.22949,0.02502
3841.16989,0.02429
3839.11028,0.02341
3837.05067,0.02314
3834.99106,0.02335
3832.93145,0.02309
3830.87184,0.02241
3828.81223,0.02218
3826.75263,0.02237
3824.69302,0.02245
3822.63341,0.02241
3820.57380,0.02235
3818.51419,0.02223
3816.45458,0.02231
3814.39498,0.02300
3812.33537,0.02369
3810.27576,0.02343
3808.21615,0.02247
3806.15654,0.02194
3804.09693,0.02208
3802.03732,0.02259
3799.97772,0.02316
3797.91811,0.02326
3795.85850,0.02337
3793.79889,0.02345
3791.73928,0.02296
3789.67967,0.02206
3787.62006,0.02133
3785.56046,0.02129
3783.50085,0.02141
3781.44124,0.02113
3779.38163,0.02111
3777.32202,0.02187
3775.26241,0.02273
3773.20280,0.02270
3771.14320,0.02182
3769.08359,0.02154
3767.02398,0.02212
3764.96437,0.02224
3762.90476,0.02232
3760.84515,0.02303
3758.78555,0.02348
3756.72594,0.02305
3754.66633,0.02216
3752.60672,0.02121
3750.54711,0.02096
3748.48750,0.02186
3746.42789,0.02277
3744.36829,0.02312
3742.30868,0.02320
3740.24907,0.02312
3738.18946,0.02276
3736.12985,0.02232
3734.07024,0.02203
3732.01063,0.02184
3729.95103,0.02188
3727.89142,0.02208
3725.83181,0.02220
3723.77220,0.02191
3721.71259,0.02140
3719.65298,0.02109
3717.59337,0.02069
3715.53377,0.02063
3713.47416,0.02166
3711.41455,0.02265
3709.35494,0.02208
3707.29533,0.02140
3705.23572,0.02145
3703.17612,0.02130
3701.11651,0.02099
3699.05690,0.02095
3696.99729,0.02059
3694.93768,0.01997
3692.87807,0.01959
3690.81846,0.01968
3688.75886,0.01995
3686.69925,0.01996
3684.63964,0.02018
3682.58003,0.02027
3680.52042,0.02031
3678.46081,0.02089
3676.40120,0.02126
3674.34160,0.02126
3672.28199,0.02123
3670.22238,0.02063
3668.16277,0.01992
3666.10316,0.02003
3664.04355,0.02052
3661.98394,0.02047
3659.92434,0.01995
3657.86473,0.01978
3655.80512,0.01997
3653.74551,0.02006
3651.68590,0.02015
3649.62629,0.02029
3647.56669,0.02051
3645.50708,0.02102
3643.44747,0.02096
3641.38786,0.02022
3639.32825,0.01973
3637.26864,0.01979
3635.20903,0.01999
3633.14943,0.02017
3631.08982,0.02063
3629.03021,0.02129
3626.97060,0.02112
3624.91099,0.02024
3622.85138,0.01973
3620.79177,0.01993
3618.73217,0.02003
3616.67256,0.01982
3614.61295,0.02011
3612.55334,0.02023
3610.49373,0.01958
3608.43412,0.01941
3606.37451,0.01983
3604.31491,0.01963
3602.25530,0.01895
3600.19569,0.01895
3598.13608,0.01945
3596.07647,0.01933
3594.01686,0.01915
3591.95726,0.01952
3589.89765,0.02000
3587.83804,0.02025
3585.77843,0.02017
3583.71882,0.01995
3581.65921,0.01974
3579.59960,0.01943
3577.54000,0.01916
3575.48039,0.01917
3573.42078,0.01945
3571.36117,0.01975
3569.30156,0.01963
3567.24195,0.01918
3565.18234,0.01878
3563.12274,0.01872
3561.06313,0.01905
3559.00352,0.01943
3556.94391,0.01932
3554.88430,0.01888
3552.82469,0.01894
3550.76508,0.01937
3548.70548,0.01946
3546.64587,0.01938
3544.58626,0.01927
3542.52665,0.01879
3540.46704,0.01847
3538.40743,0.01875
3536.34783,0.01887
3534.28822,0.01885
3532.22861,0.01925
3530.16900,0.01945
3528.10939,0.01902
3526.04978,0.01845
3523.99017,0.01819
3521.93057,0.01838
3519.87096,0.01900
3517.81135,0.01963
3515.75174,0.01974
3513.69213,0.01946
3511.63252,0.01902
3509.57291,0.01870
3507.51331,0.01864
3505.45370,0.01864
3503.39409,0.01868
3501.33448,0.01899
3499.27487,0.01952
3497.21526,0.01965
3495.15565,0.01925
3493.09605,0.01877
3491.03644,0.01836
3488.97683,0.01811
3486.91722,0.01806
3484.85761,0.01799
3482.79800,0.01785
3480.73840,0.01805
3478.67879,0.01863
3476.61918,0.01915
3474.55957,0.01900
3472.49996,0.01828
3470.44035,0.01767
3468.38074,0.01745
3466.32114,0.01791
3464.26153,0.01873
3462.20192,0.01895
3460.14231,0.01837
3458.08270,0.01763
3456.02309,0.01751
3453.96348,0.01786
3451.90388,0.01776
3449.84427,0.01726
3447.78466,0.01722
3445.72505,0.01767
3443.66544,0.01800
3441.60583,0.01800
3439.54622,0.01796
3437.48662,0.01812
3435.42701,0.01837
3433.36740,0.01848
3431.30779,0.01822
3429.24818,0.01765
3427.18857,0.01736
3425.12897,0.01745
3423.06936,0.01748
3421.00975,0.01743
3418.95014,0.01753
3416.89053,0.01784
3414.83092,0.01815
3412.77131,0.01829
3410.71171,0.01806
3408.65210,0.01759
3406.59249,0.01712
3404.53288,0.01668
3402.47327,0.01641
3400.41366,0.01653
3398.35405,0.01699
3396.29445,0.01741
3394.23484,0.01744
3392.17523,0.01739
3390.11562,0.01750
3388.05601,0.01740
3385.99640,0.01710
3383.93679,0.01696
3381.87719,0.01686
3379.81758,0.01670
3377.75797,0.01644
3375.69836,0.01629
3373.63875,0.01651
3371.57914,0.01666
3369.51954,0.01659
3367.45993,0.01677
3365.40032,0.01719
3363.34071,0.01728
3361.28110,0.01694
3359.22149,0.01638
3357.16188,0.01570
3355.10228,0.01548
3353.04267,0.01587
3350.98306,0.01620
3348.92345,0.01644
3346.86384,0.01669
3344.80423,0.01658
3342.74462,0.01630
3340.68502,0.01656
3338.62541,0.01704
3336.56580,0.01711
3334.50619,0.01686
3332.44658,0.01661
3330.38697,0.01666
3328.32736,0.01687
3326.26776,0.01661
3324.20815,0.01593
3322.14854,0.01556
3320.08893,0.01564
3318.02932,0.01591
3315.96971,0.01623
3313.91011,0.01640
3311.85050,0.01670
3309.79089,0.01727
3307.73128,0.01739
3305.67167,0.01702
3303.61206,0.01676
3301.55245,0.01678
3299.49285,0.01696
3297.43324,0.01714
3295.37363,0.01758
3293.31402,0.01807
3291.25441,0.01809
3289.19480,0.01837
3287.13519,0.01916
3285.07559,0.01958
3283.01598,0.01954
3280.95637,0.01948
3278.89676,0.01953
3276.83715,0.01967
3274.77754,0.01977
3272.71793,0.01975
3270.65833,0.01978
3268.59872,0.01998
3266.53911,0.02010
3264.47950,0.01990
3262.41989,0.01986
3260.36028,0.02040
3258.30068,0.02099
3256.24107,0.02112
3254.18146,0.02117
3252.12185,0.02153
3250.06224,0.02180
3248.00263,0.02182
3245.94302,0.02180
3243.88342,0.02188
3241.82381,0.02237
3239.76420,0.02289
3237.70459,0.02279
3235.64498,0.02251
3233.58537,0.02281
3231.52576,0.02343
3229.46616,0.02385
3227.40655,0.02425
3225.34694,0.02477
3223.28733,0.02507
3221.22772,0.02508
3219.16811,0.02531
3217.10850,0.02582
3215.04890,0.02624
3212.98929,0.02666
3210.92968,0.02714
3208.87007,0.02733
3206.81046,0.02722
3204.75085,0.02751
3202.69125,0.02827
3200.63164,0.02887
3198.57203,0.02926
3196.51242,0.02976
3194.45281,0.03020
3192.39320,0.03043
3190.33359,0.03111
3188.27399,0.03210
3186.21438,0.03284
3184.15477,0.03347
3182.09516,0.03405
3180.03555,0.03475
3177.97594,0.03572
3175.91633,0.03677
3173.85673,0.03774
3171.79712,0.03871
3169.73751,0.03980
3167.67790,0.04081
3165.61829,0.04158
3163.55868,0.04254
3161.49907,0.04398
3159.43947,0.04538
3157.37986,0.04631
3155.32025,0.04707
3153.26064,0.04784
3151.20103,0.04869
3149.14142,0.05006
3147.08182,0.05180
3145.02221,0.05322
3142.96260,0.05428
3140.90299,0.05555
3138.84338,0.05726
3136.78377,0.05901
3134.72416,0.06045
3132.66456,0.06195
3130.60495,0.06373
3128.54534,0.06553
3126.48573,0.06742
3124.42612,0.06929
3122.36651,0.07126
3120.30690,0.07383
3118.24730,0.07680
3116.18769,0.07972
3114.12808,0.08251
3112.06847,0.08550
3110.00886,0.08898
3107.94925,0.09271
3105.88965,0.09645
3103.83004,0.10033
3101.77043,0.10409
3099.71082,0.10723
3097.65121,0.11003
3095.59160,0.11325
3093.53199,0.11728
3091.47239,0.12141
3089.41278,0.12454
3087.35317,0.12681
3085.29356,0.12906
3083.23395,0.13143
3081.17434,0.13373
3079.11473,0.13596
3077.05513,0.13790
3074.99552,0.13945
3072.93591,0.14086
3070.87630,0.14203
3068.81669,0.14292
3066.75708,0.14367
3064.69747,0.14420
3062.63787,0.14439
3060.57826,0.14458
3058.51865,0.14504
3056.45904,0.14527
3054.39943,0.14486
3052.33982,0.14409
3050.28022,0.14343
3048.22061,0.14291
3046.16100,0.14235
3044.10139,0.14169
3042.04178,0.14082
3039.98217,0.14003
3037.92256,0.13979
3035.86296,0.14005
3033.80335,0.14037
3031.74374,0.14047
3029.68413,0.14053
3027.62452,0.14072
3025.56491,0.14092
3023.50530,0.14120
3021.44570,0.14149
3019.38609,0.14158
3017.32648,0.14153
3015.26687,0.14147
3013.20726,0.14139
3011.14765,0.14123
3009.08804,0.14128
3007.02844,0.14160
3004.96883,0.14204
3002.90922,0.14320
3000.84961,0.14477
2998.79000,0.14504
2996.73039,0.14379
2994.67079,0.14271
2992.61118,0.14373
2990.55157,0.14750
2988.49196,0.15168
2986.43235,0.15341
2984.37274,0.15241
2982.31313,0.15004
2980.25353,0.14763
2978.19392,0.14553
2976.13431,0.14358
2974.07470,0.14145
2972.01509,0.13875
2969.95548,0.13550
2967.89587,0.13223
2965.83627,0.12960
2963.77666,0.12781
2961.71705,0.12626
2959.65744,0.12473
2957.59783,0.12364
2955.53822,0.12334
2953.47861,0.12386
2951.41901,0.12503
2949.35940,0.12661
2947.29979,0.12850
2945.24018,0.13086
2943.18057,0.13338
2941.12096,0.13536
2939.06136,0.13659
2937.00175,0.13744
2934.94214,0.13812
2932.88253,0.13852
2930.82292,0.13852
2928.76331,0.13783
2926.70370,0.13640
2924.64410,0.13464
2922.58449,0.13290
2920.52488,0.13143
2918.46527,0.13012
2916.40566,0.12875
2914.34605,0.12723
2912.28644,0.12548
2910.22684,0.12371
2908.16723,0.12216
2906.10762,0.12082
2904.04801,0.11958
2901.98840,0.11853
2899.92879,0.11772
2897.86918,0.11702
2895.80958,0.11643
2893.74997,0.11593
2891.69036,0.11556
2889.63075,0.11521
2887.57114,0.11467
2885.51153,0.11432
2883.45193,0.11453
2881.39232,0.11494
2879.33271,0.11492
2877.27310,0.11432
2875.21349,0.11359
2873.15388,0.11300
2871.09427,0.11247
2869.03467,0.11201
2866.97506,0.11154
2864.91545,0.11108
2862.85584,0.11086
2860.79623,0.11076
2858.73662,0.11056
2856.67701,0.11023
2854.61741,0.10996
2852.55780,0.10981
2850.49819,0.10941
2848.43858,0.10870
2846.37897,0.10817
2844.31936,0.10808
2842.25975,0.10821
2840.20015,0.10818
2838.14054,0.10782
2836.08093,0.10732
2834.02132,0.10715
2831.96171,0.10752
2829.90210,0.10832
2827.84250,0.10935
2825.78289,0.11036
2823.72328,0.11139
2821.66367,0.11252
2819.60406,0.11368
2817.54445,0.11483
2815.48484,0.11592
2813.42524,0.11657
2811.36563,0.11677
2809.30602,0.11692
2807.24641,0.11708
2805.18680,0.11709
2803.12719,0.11687
2801.06758,0.11643
2799.00798,0.11583
2796.94837,0.11545
2794.88876,0.11557
2792.82915,0.11591
2790.76954,0.11627
2788.70993,0.11682
2786.65032,0.11750
2784.59072,0.11813
2782.53111,0.11872
2780.47150,0.11901
2778.41189,0.11878
2776.35228,0.11823
2774.29267,0.11763
2772.23307,0.11700
2770.17346,0.11631
2768.11385,0.11565
2766.05424,0.11510
2763.99463,0.11461
2761.93502,0.11407
2759.87541,0.11363
2757.81581,0.11345
2755.75620,0.11350
2753.69659,0.11365
2751.63698,0.11369
2749.57737,0.11364
2747.51776,0.11371
2745.45815,0.11398
2743.39855,0.11453
2741.33894,0.11532
2739.27933,0.11607
2737.21972,0.11678
2735.16011,0.11776
2733.10050,0.11888
2731.04089,0.11969
2728.98129,0.12017
2726.92168,0.12041
2724.86207,0.12016
2722.80246,0.11916
2720.74285,0.11759
2718.68324,0.11579
2716.62364,0.11389
2714.56403,0.11188
2712.50442,0.10991
2710.44481,0.10797
2708.38520,0.10588
2706.32559,0.10374
2704.26598,0.10179
2702.20638,0.09988
2700.14677,0.09786
2698.08716,0.09592
2696.02755,0.09411
2693.96794,0.09228
2691.90833,0.09044
2689.84872,0.08862
2687.78912,0.08679
2685.72951,0.08488
2683.66990,0.08308
2681.61029,0.08128
2679.55068,0.07950
2677.49107,0.07807
2675.43146,0.07688
2673.37186,0.07592
2671.31225,0.07546
2669.25264,0.07563
2667.19303,0.07607
2665.13342,0.07642
2663.07381,0.07691
2661.01421,0.07780
2658.95460,0.07887
2656.89499,0.07954
2654.83538,0.07968
2652.77577,0.07951
2650.71616,0.07931
2648.65655,0.07927
2646.59695,0.07911
2644.53734,0.07876
2642.47773,0.07865
2640.41812,0.07906
2638.35851,0.08003
2636.29890,0.08136
2634.23929,0.08288
2632.17969,0.08463
2630.12008,0.08679
2628.06047,0.08910
2626.00086,0.09095
2623.94125,0.09237
2621.88164,0.09396
2619.82203,0.09561
2617.76243,0.09691
2615.70282,0.09812
2613.64321,0.09940
2611.58360,0.10042
2609.52399,0.10116
2607.46438,0.10209
2605.40478,0.10319
2603.34517,0.10397
2601.28556,0.10452
2599.22595,0.10508
2597.16634,0.10538
2595.10673,0.10563
2593.04712,0.10573
2590.98752,0.10513
2588.92791,0.10395
2586.86830,0.10229
2584.80869,0.09985
2582.74908,0.09691
2580.68947,0.09401
2578.62986,0.09149
2576.57026,0.08938
2574.51065,0.08733
2572.45104,0.08505
2570.39143,0.08308
2568.33182,0.08193
2566.27221,0.08094
2564.21260,0.07993
2562.15300,0.07941
2560.09339,0.07875
2558.03378,0.07737
2555.97417,0.07576
2553.91456,0.07424
2551.85495,0.07275
2549.79535,0.07138
2547.73574,0.07045
2545.67613,0.07005
2543.61652,0.06979
2541.55691,0.06933
2539.49730,0.06894
2537.43769,0.06874
2535.37809,0.06825
2533.31848,0.06742
2531.25887,0.06685
2529.19926,0.06693
2527.13965,0.06731
2525.08004,0.06744
2523.02043,0.06741
2520.96083,0.06772
2518.90122,0.06837
2516.84161,0.06915
2514.78200,0.07001
2512.72239,0.07072
2510.66278,0.07109
2508.60317,0.07131
2506.54357,0.07141
2504.48396,0.07128
2502.42435,0.07075
2500.36474,0.06977
2498.30513,0.06865
2496.24552,0.06738
2494.18592,0.06604
2492.12631,0.06481
2490.06670,0.06323
2488.00709,0.06130
2485.94748,0.05962
2483.88787,0.05829
2481.82826,0.05711
2479.76866,0.05619
2477.70905,0.05574
2475.64944,0.05588
2473.58983,0.05631
2471.53022,0.05627
2469.47061,0.05591
2467.41100,0.05583
2465.35140,0.05574
2463.29179,0.05510
2461.23218,0.05418
2459.17257,0.05327
2457.11296,0.05209
2455.05335,0.05071
2452.99374,0.04989
2450.93414,0.04976
2448.87453,0.04952
2446.81492,0.04895
2444.75531,0.04810
2442.69570,0.04707
2440.63609,0.04631
2438.57649,0.04579
2436.51688,0.04546
2434.45727,0.04545
2432.39766,0.04558
2430.33805,0.04535
2428.27844,0.04477
2426.21883,0.04439
2424.15923,0.04429
2422.09962,0.04413
2420.04001,0.04390
2417.98040,0.04356
2415.92079,0.04331
2413.86118,0.04328
2411.80157,0.04307
2409.74197,0.04229
2407.68236,0.04114
2405.62275,0.04016
2403.56314,0.03962
2401.50353,0.03938
2399.44392,0.03922
2397.38431,0.03925
2395.32471,0.03941
2393.26510,0.03958
2391.20549,0.03987
2389.14588,0.03983
2387.08627,0.03924
2385.02666,0.03873
2382.96706,0.03835
2380.90745,0.03792
2378.84784,0.03762
2376.78823,0.03751
2374.72862,0.03748
2372.66901,0.03722
2370.60940,0.03648
2368.54980,0.03554
2366.49019,0.03477
2364.43058,0.03435
2362.37097,0.03423
2360.31136,0.03404
2358.25175,0.03369
2356.19214,0.03373
2354.13254,0.03394
2352.07293,0.03370
2350.01332,0.03322
2347.95371,0.03264
2345.89410,0.03208
2343.83449,0.03168
2341.77488,0.03144
2339.71528,0.03167
2337.65567,0.03216
2335.59606,0.03212
2333.53645,0.03172
2331.47684,0.03130
2329.41723,0.03095
2327.35763,0.03134
2325.29802,0.03260
2323.23841,0.03320
2321.17880,0.03253
2319.11919,0.03185
2317.05958,0.03172
2314.99997,0.03179
2312.94037,0.03187
2310.88076,0.03179
2308.82115,0.03160
2306.76154,0.03132
2304.70193,0.03106
2302.64232,0.03106
2300.58271,0.03123
2298.52311,0.03147
2296.46350,0.03176
2294.40389,0.03220
2292.34428,0.03264
2290.28467,0.03269
2288.22506,0.03230
2286.16545,0.03167
2284.10585,0.03091
2282.04624,0.03004
2279.98663,0.02916
2277.92702,0.02847
2275.86741,0.02806
2273.80780,0.02754
2271.74820,0.02698
2269.68859,0.02697
2267.62898,0.02731
2265.56937,0.02718
2263.50976,0.02667
2261.45015,0.02655
2259.39054,0.02690
2257.33094,0.02719
2255.27133,0.02725
2253.21172,0.02756
2251.15211,0.02795
2249.09250,0.02780
2247.03289,0.02723
2244.97328,0.02629
2242.91368,0.02477
2240.85407,0.02389
2238.79446,0.02444
2236.73485,0.02502
2234.67524,0.02508
2232.61563,0.02478
2230.55602,0.02399
2228.49642,0.02295
2226.43681,0.02189
2224.37720,0.02107
2222.31759,0.02030
2220.25798,0.02001
2218.19837,0.02033
2216.13877,0.02050
2214.07916,0.02034
2212.01955,0.01977
2209.95994,0.01957
2207.90033,0.01973
2205.84072,0.01958
2203.78111,0.01952
2201.72151,0.01902
2199.66190,0.01823
2197.60229,0.01885
2195.54268,0.02061
2193.48307,0.02144
2191.42346,0.02100
2189.36385,0.02025
2187.30425,0.01954
2185.24464,0.01869
2183.18503,0.01756
2181.12542,0.01701
2179.06581,0.01773
2177.00620,0.01854
2174.94659,0.01902
2172.88699,0.01972
2170.82738,0.02012
2168.76777,0.02012
2166.70816,0.01988
2164.64855,0.01936
2162.58894,0.01905
2160.52934,0.01844
2158.46973,0.01692
2156.41012,0.01625
2154.35051,0.01719
2152.29090,0.01841
2150.23129,0.01944
2148.17168,0.02057
2146.11208,0.02110
2144.05247,0.02094
2141.99286,0.02134
2139.93325,0.02177
2137.87364,0.02126
2135.81403,0.02114
2133.75442,0.02256
2131.69482,0.02449
2129.63521,0.02624
2127.57560,0.02806
2125.51599,0.02983
2123.45638,0.03146
2121.39677,0.03301
2119.33716,0.03474
2117.27756,0.03677
2115.21795,0.03834
2113.15834,0.03891
2111.09873,0.03911
2109.03912,0.03944
2106.97951,0.03905
2104.91991,0.03777
2102.86030,0.03664
2100.80069,0.03591
2098.74108,0.03533
2096.68147,0.03462
2094.62186,0.03332
2092.56225,0.03195
2090.50265,0.03104
2088.44304,0.03040
2086.38343,0.03007
2084.32382,0.02984
2082.26421,0.02938
2080.20460,0.02909
2078.14499,0.02898
2076.08539,0.02877
2074.02578,0.02862
2071.96617,0.02852
2069.90656,0.02820
2067.84695,0.02748
2065.78734,0.02620
2063.72773,0.02483
2061.66813,0.02402
2059.60852,0.02356
2057.54891,0.02329
2055.48930,0.02304
2053.42969,0.02267
2051.37008,0.02238
2049.31048,0.02174
2047.25087,0.02071
2045.19126,0.01986
2043.13165,0.01911
2041.07204,0.01818
2039.01243,0.01797
2036.95282,0.01879
2034.89322,0.01903
2032.83361,0.01821
2030.77400,0.01751
2028.71439,0.01755
2026.65478,0.01783
2024.59517,0.01795
2022.53556,0.01742
2020.47596,0.01628
2018.41635,0.01511
2016.35674,0.01381
2014.29713,0.01325
2012.23752,0.01375
2010.17791,0.01391
2008.11830,0.01358
2006.05870,0.01355
2003.99909,0.01410
2001.93948,0.01536
1999.87987,0.01679
1997.82026,0.01689
1995.76065,0.01556
1993.70105,0.01451
1991.64144,0.01433
1989.58183,0.01430
1987.52222,0.01433
1985.46261,0.01446
1983.40300,0.01440
1981.34339,0.01401
1979.28379,0.01379
1977.22418,0.01399
1975.16457,0.01383
1973.10496,0.01281
1971.04535,0.01170
1968.98574,0.01152
1966.92613,0.01201
1964.86653,0.01251
1962.80692,0.01261
1960.74731,0.01196
1958.68770,0.01112
1956.62809,0.01147
1954.56848,0.01303
1952.50887,0.01399
1950.44927,0.01357
1948.38966,0.01316
1946.33005,0.01337
1944.27044,0.01323
1942.21083,0.01278
1940.15122,0.01281
1938.09162,0.01323
1936.03201,0.01339
1933.97240,0.01319
1931.91279,0.01290
1929.85318,0.01282
1927.79357,0.01291
1925.73396,0.01280
1923.67436,0.01274
1921.61475,0.01294
1919.55514,0.01285
1917.49553,0.01221
1915.43592,0.01177
1913.37631,0.01187
1911.31670,0.01205
1909.25710,0.01213
1907.19749,0.01215
1905.13788,0.01208
1903.07827,0.01183
1901.01866,0.01173
1898.95905,0.01185
1896.89944,0.01193
1894.83984,0.01215
1892.78023,0.01264
1890.72062,0.01291
1888.66101,0.01256
1886.60140,0.01209
1884.54179,0.01194
1882.48219,0.01188
1880.42258,0.01168
1878.36297,0.01164
1876.30336,0.01190
1874.24375,0.01188
1872.18414,0.01153
1870.12453,0.01144
1868.06493,0.01151
1866.00532,0.01129
1863.94571,0.01110
1861.88610,0.01114
1859.82649,0.01110
1857.76688,0.01092
1855.70727,0.01089
1853.64767,0.01112
1851.58806,0.01134
1849.52845,0.01142
1847.46884,0.01157
1845.40923,0.01176
1843.34962,0.01189
1841.29002,0.01195
1839.23041,0.01172
1837.17080,0.01131
1835.11119,0.01108
1833.05158,0.01096
1830.99197,0.01079
1828.93236,0.01065
1826.87276,0.01048
1824.81315,0.01032
1822.75354,0.01030
1820.69393,0.01010
1818.63432,0.00981
1816.57471,0.00983
1814.51510,0.01000
1812.45550,0.01003
1810.39589,0.01009
1808.33628,0.01014
1806.27667,0.01002
1804.21706,0.00998
1802.15745,0.01031
1800.09784,0.01074
1798.03824,0.01073
1795.97863,0.01041
1793.91902,0.01021
1791.85941,0.01017
1789.79980,0.01011
1787.74019,0.00997
1785.68059,0.00979
1783.62098,0.00965
1781.56137,0.00952
1779.50176,0.00940
1777.44215,0.00935
1775.38254,0.00932
1773.32293,0.00934
1771.26333,0.00934
1769.20372,0.00941
1767.14411,0.00962
1765.08450,0.00977
1763.02489,0.00973
1760.96528,0.00972
1758.90567,0.00977
1756.84607,0.00977
1754.78646,0.00970
1752.72685,0.00962
1750.66724,0.00957
1748.60763,0.00951
1746.54802,0.00948
1744.48841,0.00945
1742.42881,0.00941
1740.36920,0.00939
1738.30959,0.00935
1736.24998,0.00929
1734.19037,0.00944
1732.13076,0.00980
1730.07116,0.01006
1728.01155,0.01018
1725.95194,0.01024
1723.89233,0.01028
1721.83272,0.01027
1719.77311,0.01020
1717.71350,0.01020
1715.65390,0.01028
1713.59429,0.01026
1711.53468,0.01012
1709.47507,0.00991
1707.41546,0.00960
1705.35585,0.00934
1703.29624,0.00919
1701.23664,0.00904
1699.17703,0.00907
1697.11742,0.00929
1695.05781,0.00945
1692.99820,0.00959
1690.93859,0.00967
1688.87898,0.00977
1686.81938,0.01009
1684.75977,0.01058
1682.70016,0.01092
1680.64055,0.01119
1678.58094,0.01155
1676.52133,0.01181
1674.46173,0.01200
1672.40212,0.01220
1670.34251,0.01252
1668.28290,0.01297
1666.22329,0.01341
1664.16368,0.01398
1662.10407,0.01512
1660.04447,0.01690
1657.98486,0.01909
1655.92525,0.02167
1653.86564,0.02636
1651.80603,0.03349
1649.74642,0.03840
1647.68681,0.04226
1645.62721,0.04567
1643.56760,0.04760
1641.50799,0.04883
1639.44838,0.05018
1637.38877,0.05276
1635.32916,0.05850
1633.26955,0.06610
1631.20995,0.07389
1629.15034,0.08380
1627.09073,0.09619
1625.03112,0.10928
1622.97151,0.12238
1620.91190,0.13283
1618.85230,0.13939
1616.79269,0.14458
1614.73308,0.14839
1612.67347,0.14956
1610.61386,0.14792
1608.55425,0.14374
1606.49464,0.13935
1604.43504,0.13796
1602.37543,0.14097
1600.31582,0.14729
1598.25621,0.15517
1596.19660,0.16341
1594.13699,0.17143
1592.07738,0.17904
1590.01778,0.18648
1587.95817,0.19326
1585.89856,0.19826
1583.83895,0.20060
1581.77934,0.20017
1579.71973,0.19760
1577.66012,0.19356
1575.60052,0.18833
1573.54091,0.18323
1571.48130,0.17851
1569.42169,0.17338
1567.36208,0.16864
1565.30247,0.16453
1563.24287,0.16073
1561.18326,0.15694
1559.12365,0.15211
1557.06404,0.14705
1555.00443,0.14304
1552.94482,0.13927
1550.88521,0.13569
1548.82561,0.13241
1546.76600,0.12947
1544.70639,0.12630
1542.64678,0.12222
1540.58717,0.11652
1538.52756,0.11011
1536.46795,0.10518
1534.40835,0.10058
1532.34874,0.09604
1530.28913,0.09297
1528.22952,0.09164
1526.16991,0.09244
1524.11030,0.09551
1522.05069,0.10059
1519.99109,0.10592
1517.93148,0.10853
1515.87187,0.10863
1513.81226,0.10747
1511.75265,0.10616
1509.69304,0.10544
1507.63344,0.10535
1505.57383,0.10497
1503.51422,0.10332
1501.45461,0.10063
1499.39500,0.09704
1497.33539,0.09259
1495.27578,0.08772
1493.21618,0.08334
1491.15657,0.07907
1489.09696,0.07440
1487.03735,0.07012
1484.97774,0.06669
1482.91813,0.06382
1480.85852,0.06116
1478.79892,0.05868
1476.73931,0.05655
1474.67970,0.05500
1472.62009,0.05454
1470.56048,0.05566
1468.50087,0.05834
1466.44126,0.06318
1464.38166,0.06993
1462.32205,0.07565
1460.26244,0.08084
1458.20283,0.09100
1456.14322,0.10662
1454.08361,0.11480
1452.02401,0.11311
1449.96440,0.10588
1447.90479,0.09684
1445.84518,0.08873
1443.78557,0.08150
1441.72596,0.07392
1439.66635,0.06668
1437.60675,0.06038
1435.54714,0.05554
1433.48753,0.05296
1431.42792,0.05176
1429.36831,0.05146
1427.30870,0.05234
1425.24909,0.05485
1423.18949,0.05933
1421.12988,0.06669
1419.07027,0.08008
1417.01066,0.09861
1414.95105,0.11685
1412.89144,0.13197
1410.83183,0.13963
1408.77223,0.13714
1406.71262,0.12657
1404.65301,0.11197
1402.59340,0.09790
1400.53379,0.08589
1398.47418,0.07525
1396.41458,0.06651
1394.35497,0.05954
1392.29536,0.05421
1390.23575,0.05029
1388.17614,0.04703
1386.11653,0.04439
1384.05692,0.04301
1381.99732,0.04405
1379.93771,0.04821
1377.87810,0.05286
1375.81849,0.05500
1373.75888,0.05664
1371.69927,0.06157
1369.63966,0.07144
1367.58006,0.08616
1365.52045,0.10331
1363.46084,0.11987
1361.40123,0.13131
1359.34162,0.13495
1357.28201,0.13325
1355.22240,0.12754
1353.16280,0.11783
1351.10319,0.10617
1349.04358,0.09496
1346.98397,0.08543
1344.92436,0.07762
1342.86475,0.07105
1340.80515,0.06533
1338.74554,0.06038
1336.68593,0.05618
1334.62632,0.05255
1332.56671,0.04935
1330.50710,0.04655
1328.44749,0.04420
1326.38789,0.04245
1324.32828,0.04140
1322.26867,0.04126
1320.20906,0.04243
1318.14945,0.04552
1316.08984,0.05181
1314.03023,0.06347
1311.97063,0.08169
1309.91102,0.10379
1307.85141,0.12309
1305.79180,0.13264
1303.73219,0.13071
1301.67258,0.12163
1299.61297,0.11068
1297.55337,0.10056
1295.49376,0.09170
1293.43415,0.08401
1291.37454,0.07750
1289.31493,0.07214
1287.25532,0.06771
1285.19572,0.06392
1283.13611,0.06057
1281.07650,0.05759
1279.01689,0.05496
1276.95728,0.05259
1274.89767,0.05043
1272.83806,0.04845
1270.77846,0.04662
1268.71885,0.04491
1266.65924,0.04330
1264.59963,0.04191
1262.54002,0.04073
1260.48041,0.03955
1258.42080,0.03840
1256.36120,0.03753
1254.30159,0.03690
1252.24198,0.03638
1250.18237,0.03602
1248.12276,0.03611
1246.06315,0.03728
1244.00354,0.04056
1241.94394,0.04742
1239.88433,0.05815
1237.82472,0.06929
1235.76511,0.07483
1233.70550,0.07244
1231.64589,0.06543
1229.58629,0.05793
1227.52668,0.05171
1225.46707,0.04701
1223.40746,0.04353
1221.34785,0.04093
1219.28824,0.03892
1217.22863,0.03724
1215.16903,0.03575
1213.10942,0.03438
1211.04981,0.03323
1208.99020,0.03230
1206.93059,0.03150
1204.87098,0.03079
1202.81137,0.03014
1200.75177,0.02952
1198.69216,0.02897
1196.63255,0.02843
1194.57294,0.02788
1192.51333,0.02734
1190.45372,0.02691
1188.39411,0.02656
1186.33451,0.02619
1184.27490,0.02583
1182.21529,0.02549
1180.15568,0.02511
1178.09607,0.02471
1176.03646,0.02447
1173.97686,0.02450
1171.91725,0.02465
1169.85764,0.02479
1167.79803,0.02508
1165.73842,0.02567
1163.67881,0.02671
1161.61920,0.02858
1159.55960,0.03199
1157.49999,0.03770
1155.44038,0.04543
1153.38077,0.05299
1151.32116,0.05724
1149.26155,0.05678
1147.20194,0.05282
1145.14234,0.04740
1143.08273,0.04205
1141.02312,0.03758
1138.96351,0.03408
1136.90390,0.03125
1134.84429,0.02896
1132.78468,0.02721
1130.72508,0.02594
1128.66547,0.02514
1126.60586,0.02494
1124.54625,0.02563
1122.48664,0.02803
1120.42703,0.03443
1118.36743,0.04753
1116.30782,0.06545
1114.24821,0.07947
1112.18860,0.08245
1110.12899,0.07575
1108.06938,0.06467
1106.00977,0.05381
1103.95017,0.04575
1101.89056,0.04059
1099.83095,0.03716
1097.77134,0.03445
1095.71173,0.03216
1093.65212,0.03028
1091.59251,0.02871
1089.53291,0.02744
1087.47330,0.02650
1085.41369,0.02576
1083.35408,0.02512
1081.29447,0.02457
1079.23486,0.02404
1077.17525,0.02336
1075.11565,0.02260
1073.05604,0.02203
1070.99643,0.02170
1068.93682,0.02145
1066.87721,0.02115
1064.81760,0.02075
1062.75800,0.02037
1060.69839,0.02009
1058.63878,0.01982
1056.57917,0.01958
1054.51956,0.01939
1052.45995,0.01908
1050.40034,0.01867
1048.34074,0.01826
1046.28113,0.01789
1044.22152,0.01756
1042.16191,0.01719
1040.10230,0.01681
1038.04269,0.01644
1035.98308,0.01614
1033.92348,0.01599
1031.86387,0.01601
1029.80426,0.01622
1027.74465,0.01701
1025.68504,0.01935
1023.62543,0.02473
1021.56582,0.03360
1019.50622,0.04423
1017.44661,0.05595
1015.38700,0.06902
1013.32739,0.07872
1011.26778,0.07916
1009.20817,0.07170
1007.14857,0.06182
1005.08896,0.05290
1003.02935,0.04579
1000.96974,0.04036
998.91013,0.03637
996.85052,0.03337
994.79091,0.03096
992.73131,0.02909
990.67170,0.02768
988.61209,0.02654
986.55248,0.02554
984.49287,0.02472
982.43326,0.02403
980.37365,0.02347
978.31405,0.02304
976.25444,0.02270
974.19483,0.02236
972.13522,0.02196
970.07561,0.02160
968.01600,0.02142
965.95639,0.02133
963.89679,0.02125
961.83718,0.02123
959.77757,0.02129
957.71796,0.02141
955.65835,0.02152
953.59874,0.02154
951.53914,0.02150
949.47953,0.02149
947.41992,0.02148
945.36031,0.02137
943.30070,0.02121
941.24109,0.02107
939.18148,0.02087
937.12188,0.02060
935.06227,0.02044
933.00266,0.02044
930.94305,0.02061
928.88344,0.02130
926.82383,0.02314
924.76422,0.02694
922.70462,0.03334
920.64501,0.04074
918.58540,0.04449
916.52579,0.04172
914.46618,0.03523
912.40657,0.02922
910.34696,0.02515
908.28736,0.02260
906.22775,0.02087
904.16814,0.01952
902.10853,0.01847
900.04892,0.01781
897.98931,0.01738
895.92971,0.01695
893.87010,0.01658
891.81049,0.01641
889.75088,0.01626
887.69127,0.01591
885.63166,0.01554
883.57205,0.01533
881.51245,0.01513
879.45284,0.01492
877.39323,0.01471
875.33362,0.01453
873.27401,0.01436
871.21440,0.01407
869.15479,0.01373
867.09519,0.01361
865.03558,0.01388
862.97597,0.01456
860.91636,0.01584
858.85675,0.01857
856.79714,0.02424
854.73753,0.03429
852.67793,0.04771
850.61832,0.05925
848.55871,0.06303
846.49910,0.05812
844.43949,0.04850
842.37988,0.03915
840.32028,0.03238
838.26067,0.02784
836.20106,0.02469
834.14145,0.02247
832.08184,0.02100
830.02223,0.01994
827.96262,0.01897
825.90302,0.01806
823.84341,0.01729
821.78380,0.01670
819.72419,0.01627
817.66458,0.01599
815.60497,0.01576
813.54536,0.01548
811.48576,0.01518
809.42615,0.01488
807.36654,0.01460
805.30693,0.01433
803.24732,0.01405
801.18771,0.01383
799.12810,0.01380
797.06850,0.01382
795.00889,0.01380
792.94928,0.01384
790.88967,0.01397
788.83006,0.01427
786.77045,0.01478
784.71085,0.01562
782.65124,0.01716
780.59163,0.01988
778.53202,0.02426
776.47241,0.03046
774.41280,0.03765
772.35319,0.04344
770.29359,0.04481
768.23398,0.04115
766.17437,0.03497
764.11476,0.02903
762.05515,0.02449
759.99554,0.02142
757.93593,0.01938
755.87633,0.01794
753.81672,0.01694
751.75711,0.01618
749.69750,0.01541
747.63789,0.01467
745.57828,0.01409
743.51867,0.01364
741.45907,0.01326
739.39946,0.01300
737.33985,0.01278
735.28024,0.01255
733.22063,0.01226
731.16102,0.01196
729.10142,0.01179
727.04181,0.01168
724.98220,0.01150
722.92259,0.01130
720.86298,0.01112
718.80337,0.01091
716.74376,0.01062
714.68416,0.01042
712.62455,0.01040
710.56494,0.01040
708.50533,0.01036
706.44572,0.01030
704.38611,0.01021
702.32650,0.01015
700.26690,0.01007
698.20729,0.00995
696.14768,0.00990
694.08807,0.00989
692.02846,0.00994
689.96885,0.00999
687.90924,0.00982
685.84964,0.00953
683.79003,0.00936
681.73042,0.00929
679.67081,0.00930
677.61120,0.00932
675.55159,0.00941
673.49199,0.00962
671.43238,0.00974
669.37277,0.00986
667.31316,0.01033
665.25355,0.01090
663.19394,0.01168
661.13433,0.01311
659.07473,0.01559
657.01512,0.01951
654.95551,0.02501
652.89590,0.03167
650.83629,0.03827
648.77668,0.04326
646.71707,0.04552
644.65747,0.04495
642.59786,0.04194
640.53825,0.03720
638.47864,0.03195
636.41903,0.02732
634.35942,0.02358
632.29981,0.02060
630.24021,0.01835
628.18060,0.01658
626.12099,0.01519
624.06138,0.01429
622.00177,0.01360
619.94216,0.01296
617.88256,0.01242
615.82295,0.01190
613.76334,0.01138
611.70373,0.01105
609.64412,0.01083
607.58451,0.01052
605.52490,0.01018
603.46530,0.00999
601.40569,0.01009
599.34608,0.01019
597.28647,0.01003
595.22686,0.00983
593.16725,0.00977
591.10764,0.00982
589.04804,0.00989
586.98843,0.00992
584.92882,0.00994
582.86921,0.00996
580.80960,0.00993
578.74999,0.00993
576.69039,0.01009
574.63078,0.01031
572.57117,0.01049
570.51156,0.01074
568.45195,0.01122
566.39234,0.01198
564.33273,0.01292
562.27313,0.01397
560.21352,0.01510
558.15391,0.01649
556.09430,0.01852
554.03469,0.02122
551.97508,0.02479
549.91547,0.02956
547.85587,0.03527
545.79626,0.04140
543.73665,0.04757
541.67704,0.05348
539.61743,0.05822
537.55782,0.06039
535.49821,0.05926
533.43861,0.05547
531.37900,0.05042
529.31939,0.04527
527.25978,0.04060
525.20017,0.03646
523.14056,0.03277
521.08096,0.02950
519.02135,0.02673
516.96174,0.02437
514.90213,0.02225
512.84252,0.02046
510.78291,0.01894
508.72330,0.01765
506.66370,0.01675
504.60409,0.01621
502.54448,0.01576
500.48487,0.01556
498.42526,0.01580
496.36565,0.01623
494.30604,0.01706
492.24644,0.01865
490.18683,0.02071
488.12722,0.02255
486.06761,0.02361
484.00800,0.02338
481.94839,0.02176
479.88878,0.01949
477.82918,0.01747
475.76957,0.01589
473.70996,0.01447
471.65035,0.01306
469.59074,0.01195
467.53113,0.01120
465.47153,0.01067
463.41192,0.01040
461.35231,0.01022
459.29270,0.00996
457.23309,0.00954
455.17348,0.00909
453.11387,0.00899
451.05427,0.00927
448.99466,0.00970
446.93505,0.00986
444.87544,0.00983
442.81583,0.00996
440.75622,0.01013
438.69661,0.01043
436.63701,0.01122
434.57740,0.01239
432.51779,0.01372
430.45818,0.01523
428.39857,0.01684
426.33896,0.01874
424.27935,0.02145
422.21975,0.02487
420.16014,0.02936
418.10053,0.03553
416.04092,0.04136
413.98131,0.04625
411.92170,0.05124
409.86210,0.05624
407.80249,0.06071
405.74288,0.06368
403.68327,0.06436
401.62366,0.06324
399.56405,0.06034
