3997.65486	0.04819
3995.59527	0.04838
3993.53569	0.04830
3991.47610	0.04820
3989.41652	0.04812
3987.35693	0.04799
3985.29735	0.04820
3983.23776	0.04878
3981.17817	0.04902
3979.11859	0.04870
3977.05900	0.04829
3974.99942	0.04818
3972.93983	0.04822
3970.88025	0.04795
3968.82066	0.04748
3966.76108	0.04720
3964.70149	0.04710
3962.64191	0.04700
3960.58232	0.04677
3958.52274	0.04634
3956.46315	0.04595
3954.40357	0.04596
3952.34398	0.04620
3950.28440	0.04617
3948.22481	0.04597
3946.16523	0.04583
3944.10564	0.04557
3942.04606	0.04554
3939.98647	0.04615
3937.92689	0.04660
3935.86730	0.04628
3933.80772	0.04588
3931.74813	0.04597
3929.68855	0.04643
3927.62896	0.04704
3925.56937	0.04727
3923.50979	0.04675
3921.45020	0.04602
3919.39062	0.04577
3917.33103	0.04588
3915.27145	0.04593
3913.21186	0.04583
3911.15228	0.04566
3909.09269	0.04527
3907.03311	0.04480
3904.97352	0.04506
3902.91394	0.04616
3900.85435	0.04693
3898.79477	0.04653
3896.73518	0.04571
3894.67560	0.04537
3892.61601	0.04520
3890.55643	0.04466
3888.49684	0.04408
3886.43726	0.04398
3884.37767	0.04435
3882.31809	0.04492
3880.25850	0.04527
3878.19892	0.04520
3876.13933	0.04475
3874.07974	0.04421
3872.02016	0.04401
3869.96057	0.04418
3867.90099	0.04451
3865.84140	0.04440
3863.78182	0.04345
3861.72223	0.04250
3859.66265	0.04227
3857.60306	0.04242
3855.54348	0.04230
3853.48389	0.04202
3851.42431	0.04243
3849.36472	0.04331
3847.30514	0.04393
3845.24555	0.04381
3843.18597	0.04309
3841.12638	0.04256
3839.06680	0.04255
3837.00721	0.04264
3834.94763	0.04264
3832.88804	0.04277
3830.82846	0.04308
3828.76887	0.04342
3826.70929	0.04370
3824.64970	0.04365
3822.59012	0.04310
3820.53053	0.04238
3818.47094	0.04195
3816.41136	0.04194
3814.35177	0.04224
3812.29219	0.04251
3810.23260	0.04251
3808.17302	0.04221
3806.11343	0.04176
3804.05385	0.04138
3801.99426	0.04130
3799.93468	0.04157
3797.87509	0.04164
3795.81551	0.04145
3793.75592	0.04131
3791.69634	0.04115
3789.63675	0.04109
3787.57717	0.04133
3785.51758	0.04162
3783.45800	0.04173
3781.39841	0.04168
3779.33883	0.04145
3777.27924	0.04135
3775.21966	0.04165
3773.16007	0.04196
3771.10049	0.04185
3769.04090	0.04168
3766.98132	0.04191
3764.92173	0.04226
3762.86214	0.04221
3760.80256	0.04142
3758.74297	0.04039
3756.68339	0.04008
3754.62380	0.04029
3752.56422	0.04030
3750.50463	0.04043
3748.44505	0.04138
3746.38546	0.04245
3744.32588	0.04267
3742.26629	0.04174
3740.20671	0.04022
3738.14712	0.03935
3736.08754	0.04033
3734.02795	0.04215
3731.96837	0.04254
3729.90878	0.04181
3727.84920	0.04114
3725.78961	0.04055
3723.73003	0.03990
3721.67044	0.03969
3719.61086	0.04022
3717.55127	0.04089
3715.49169	0.04081
3713.43210	0.04007
3711.37251	0.03972
3709.31293	0.04012
3707.25334	0.04050
3705.19376	0.04048
3703.13417	0.04089
3701.07459	0.04168
3699.01500	0.04165
3696.95542	0.04091
3694.89583	0.04060
3692.83625	0.04064
3690.77666	0.04040
3688.71708	0.04027
3686.65749	0.04088
3684.59791	0.04177
3682.53832	0.04236
3680.47874	0.04238
3678.41915	0.04140
3676.35957	0.04030
3674.29998	0.04100
3672.24040	0.04255
3670.18081	0.04367
3668.12123	0.04498
3666.06164	0.04593
3664.00206	0.04588
3661.94247	0.04568
3659.88289	0.04635
3657.82330	0.04777
3655.76371	0.04897
3653.70413	0.04949
3651.64454	0.05007
3649.58496	0.05126
3647.52537	0.05238
3645.46579	0.05283
3643.40620	0.05284
3641.34662	0.05265
3639.28703	0.05284
3637.22745	0.05400
3635.16786	0.05572
3633.10828	0.05716
3631.04869	0.05812
3628.98911	0.05904
3626.92952	0.06028
3624.86994	0.06204
3622.81035	0.06395
3620.75077	0.06502
3618.69118	0.06541
3616.63160	0.06626
3614.57201	0.06725
3612.51243	0.06772
3610.45284	0.06836
3608.39326	0.07008
3606.33367	0.07217
3604.27408	0.07347
3602.21450	0.07412
3600.15491	0.07489
3598.09533	0.07599
3596.03574	0.07718
3593.97616	0.07834
3591.91657	0.07957
3589.85699	0.08090
3587.79740	0.08236
3585.73782	0.08335
3583.67823	0.08380
3581.61865	0.08458
3579.55906	0.08592
3577.49948	0.08724
3575.43989	0.08828
3573.38031	0.08940
3571.32072	0.09070
3569.26114	0.09204
3567.20155	0.09379
3565.14197	0.09596
3563.08238	0.09786
3561.02280	0.09934
3558.96321	0.10039
3556.90363	0.10105
3554.84404	0.10160
3552.78446	0.10239
3550.72487	0.10366
3548.66528	0.10557
3546.60570	0.10776
3544.54611	0.10947
3542.48653	0.11071
3540.42694	0.11211
3538.36736	0.11380
3536.30777	0.11529
3534.24819	0.11623
3532.18860	0.11678
3530.12902	0.11733
3528.06943	0.11805
3526.00985	0.11918
3523.95026	0.12117
3521.89068	0.12341
3519.83109	0.12479
3517.77151	0.12554
3515.71192	0.12649
3513.65234	0.12777
3511.59275	0.12926
3509.53317	0.13099
3507.47358	0.13245
3505.41400	0.13331
3503.35441	0.13427
3501.29483	0.13549
3499.23524	0.13657
3497.17565	0.13765
3495.11607	0.13876
3493.05648	0.13981
3490.99690	0.14101
3488.93731	0.14234
3486.87773	0.14359
3484.81814	0.14468
3482.75856	0.14569
3480.69897	0.14678
3478.63939	0.14809
3476.57980	0.14958
3474.52022	0.15115
3472.46063	0.15247
3470.40105	0.15329
3468.34146	0.15414
3466.28188	0.15555
3464.22229	0.15707
3462.16271	0.15804
3460.10312	0.15864
3458.04354	0.15945
3455.98395	0.16061
3453.92437	0.16209
3451.86478	0.16355
3449.80520	0.16441
3447.74561	0.16499
3445.68603	0.16594
3443.62644	0.16713
3441.56685	0.16834
3439.50727	0.16931
3437.44768	0.17017
3435.38810	0.17128
3433.32851	0.17249
3431.26893	0.17363
3429.20934	0.17486
3427.14976	0.17604
3425.09017	0.17712
3423.03059	0.17815
3420.97100	0.17894
3418.91142	0.17956
3416.85183	0.18027
3414.79225	0.18110
3412.73266	0.18200
3410.67308	0.18296
3408.61349	0.18415
3406.55391	0.18546
3404.49432	0.18636
3402.43474	0.18688
3400.37515	0.18762
3398.31557	0.18859
3396.25598	0.18950
3394.19640	0.19044
3392.13681	0.19140
3390.07723	0.19208
3388.01764	0.19274
3385.95805	0.19359
3383.89847	0.19446
3381.83888	0.19539
3379.77930	0.19647
3377.71971	0.19762
3375.66013	0.19850
3373.60054	0.19901
3371.54096	0.19987
3369.48137	0.20154
3367.42179	0.20349
3365.36220	0.20487
3363.30262	0.20565
3361.24303	0.20684
3359.18345	0.20850
3357.12386	0.20975
3355.06428	0.21071
3353.00469	0.21192
3350.94511	0.21327
3348.88552	0.21463
3346.82594	0.21603
3344.76635	0.21734
3342.70677	0.21886
3340.64718	0.22088
3338.58760	0.22284
3336.52801	0.22434
3334.46842	0.22569
3332.40884	0.22712
3330.34925	0.22886
3328.28967	0.23117
3326.23008	0.23366
3324.17050	0.23573
3322.11091	0.23743
3320.05133	0.23940
3317.99174	0.24181
3315.93216	0.24418
3313.87257	0.24622
3311.81299	0.24802
3309.75340	0.24975
3307.69382	0.25185
3305.63423	0.25461
3303.57465	0.25753
3301.51506	0.26017
3299.45548	0.26264
3297.39589	0.26476
3295.33631	0.26651
3293.27672	0.26826
3291.21714	0.26970
3289.15755	0.27070
3287.09797	0.27173
3285.03838	0.27279
3282.97880	0.27372
3280.91921	0.27428
3278.85962	0.27419
3276.80004	0.27370
3274.74045	0.27309
3272.68087	0.27234
3270.62128	0.27128
3268.56170	0.26955
3266.50211	0.26720
3264.44253	0.26469
3262.38294	0.26238
3260.32336	0.26040
3258.26377	0.25831
3256.20419	0.25549
3254.14460	0.25235
3252.08502	0.24965
3250.02543	0.24739
3247.96585	0.24524
3245.90626	0.24284
3243.84668	0.23990
3241.78709	0.23690
3239.72751	0.23444
3237.66792	0.23247
3235.60834	0.23075
3233.54875	0.22910
3231.48917	0.22734
3229.42958	0.22544
3227.36999	0.22383
3225.31041	0.22258
3223.25082	0.22101
3221.19124	0.21932
3219.13165	0.21802
3217.07207	0.21658
3215.01248	0.21487
3212.95290	0.21337
3210.89331	0.21223
3208.83373	0.21109
3206.77414	0.20941
3204.71456	0.20752
3202.65497	0.20602
3200.59539	0.20472
3198.53580	0.20332
3196.47622	0.20185
3194.41663	0.20039
3192.35705	0.19893
3190.29746	0.19734
3188.23788	0.19557
3186.17829	0.19388
3184.11871	0.19204
3182.05912	0.18970
3179.99954	0.18726
3177.93995	0.18494
3175.88037	0.18263
3173.82078	0.18055
3171.76119	0.17864
3169.70161	0.17681
3167.64202	0.17499
3165.58244	0.17308
3163.52285	0.17123
3161.46327	0.16938
3159.40368	0.16744
3157.34410	0.16541
3155.28451	0.16340
3153.22493	0.16145
3151.16534	0.15966
3149.10576	0.15802
3147.04617	0.15605
3144.98659	0.15377
3142.92700	0.15187
3140.86742	0.15064
3138.80783	0.14950
3136.74825	0.14785
3134.68866	0.14620
3132.62908	0.14480
3130.56949	0.14320
3128.50991	0.14178
3126.45032	0.14093
3124.39074	0.14031
3122.33115	0.13972
3120.27156	0.13893
3118.21198	0.13785
3116.15239	0.13668
3114.09281	0.13555
3112.03322	0.13481
3109.97364	0.13446
3107.91405	0.13403
3105.85447	0.13348
3103.79488	0.13311
3101.73530	0.13292
3099.67571	0.13263
3097.61613	0.13225
3095.55654	0.13210
3093.49696	0.13230
3091.43737	0.13276
3089.37779	0.13312
3087.31820	0.13311
3085.25862	0.13309
3083.19903	0.13331
3081.13945	0.13349
3079.07986	0.13326
3077.02028	0.13260
3074.96069	0.13191
3072.90111	0.13158
3070.84152	0.13151
3068.78194	0.13151
3066.72235	0.13134
3064.66276	0.13073
3062.60318	0.12994
3060.54359	0.12915
3058.48401	0.12790
3056.42442	0.12633
3054.36484	0.12524
3052.30525	0.12467
3050.24567	0.12389
3048.18608	0.12254
3046.12650	0.12086
3044.06691	0.11917
3042.00733	0.11772
3039.94774	0.11666
3037.88816	0.11592
3035.82857	0.11523
3033.76899	0.11412
3031.70940	0.11257
3029.64982	0.11104
3027.59023	0.10975
3025.53065	0.10847
3023.47106	0.10694
3021.41148	0.10550
3019.35189	0.10448
3017.29231	0.10369
3015.23272	0.10297
3013.17313	0.10225
3011.11355	0.10148
3009.05396	0.10079
3006.99438	0.10021
3004.93479	0.09968
3002.87521	0.09918
3000.81562	0.09895
2998.75604	0.09910
2996.69645	0.09941
2994.63687	0.09975
2992.57728	0.10026
2990.51770	0.10108
2988.45811	0.10228
2986.39853	0.10381
2984.33894	0.10578
2982.27936	0.10783
2980.21977	0.10943
2978.16019	0.11084
2976.10060	0.11240
2974.04102	0.11407
2971.98143	0.11601
2969.92185	0.11839
2967.86226	0.12083
2965.80268	0.12269
2963.74309	0.12405
2961.68351	0.12525
2959.62392	0.12573
2957.56433	0.12514
2955.50475	0.12399
2953.44516	0.12250
2951.38558	0.12077
2949.32599	0.11935
2947.26641	0.11875
2945.20682	0.11908
2943.14724	0.12015
2941.08765	0.12157
2939.02807	0.12322
2936.96848	0.12515
2934.90890	0.12715
2932.84931	0.12904
2930.78973	0.13056
2928.73014	0.13186
2926.67056	0.13318
2924.61097	0.13435
2922.55139	0.13556
2920.49180	0.13662
2918.43222	0.13665
2916.37263	0.13442
2914.31305	0.12958
2912.25346	0.12381
2910.19388	0.11891
2908.13429	0.11506
2906.07471	0.11186
2904.01512	0.10928
2901.95553	0.10737
2899.89595	0.10593
2897.83636	0.10464
2895.77678	0.10319
2893.71719	0.10179
2891.65761	0.10066
2889.59802	0.09960
2887.53844	0.09882
2885.47885	0.09870
2883.41927	0.09898
2881.35968	0.09941
2879.30010	0.09989
2877.24051	0.10031
2875.18093	0.10057
2873.12134	0.10035
2871.06176	0.09929
2869.00217	0.09748
2866.94259	0.09557
2864.88300	0.09407
2862.82342	0.09316
2860.76383	0.09303
2858.70425	0.09361
2856.64466	0.09442
2854.58508	0.09552
2852.52549	0.09729
2850.46590	0.09881
2848.40632	0.09788
2846.34673	0.09369
2844.28715	0.08836
2842.22756	0.08410
2840.16798	0.08115
2838.10839	0.07893
2836.04881	0.07717
2833.98922	0.07595
2831.92964	0.07521
2829.87005	0.07459
2827.81047	0.07395
2825.75088	0.07340
2823.69130	0.07291
2821.63171	0.07241
2819.57213	0.07195
2817.51254	0.07135
2815.45296	0.07037
2813.39337	0.06938
2811.33379	0.06893
2809.27420	0.06881
2807.21462	0.06854
2805.15503	0.06804
2803.09545	0.06758
2801.03586	0.06727
2798.97628	0.06695
2796.91669	0.06659
2794.85710	0.06609
2792.79752	0.06534
2790.73793	0.06455
2788.67835	0.06410
2786.61876	0.06395
2784.55918	0.06382
2782.49959	0.06358
2780.44001	0.06317
2778.38042	0.06268
2776.32084	0.06217
2774.26125	0.06172
2772.20167	0.06145
2770.14208	0.06124
2768.08250	0.06098
2766.02291	0.06074
2763.96333	0.06038
2761.90374	0.05988
2759.84416	0.05950
2757.78457	0.05911
2755.72499	0.05853
2753.66540	0.05810
2751.60582	0.05803
2749.54623	0.05797
2747.48665	0.05773
2745.42706	0.05739
2743.36747	0.05698
2741.30789	0.05649
2739.24830	0.05606
2737.18872	0.05590
2735.12913	0.05585
2733.06955	0.05558
2731.00996	0.05509
2728.95038	0.05465
2726.89079	0.05431
2724.83121	0.05398
2722.77162	0.05367
2720.71204	0.05337
2718.65245	0.05315
2716.59287	0.05291
2714.53328	0.05259
2712.47370	0.05239
2710.41411	0.05220
2708.35453	0.05184
2706.29494	0.05149
2704.23536	0.05138
2702.17577	0.05143
2700.11619	0.05135
2698.05660	0.05109
2695.99702	0.05077
2693.93743	0.05054
2691.87785	0.05035
2689.81826	0.04996
2687.75867	0.04954
2685.69909	0.04920
2683.63950	0.04895
2681.57992	0.04895
2679.52033	0.04911
2677.46075	0.04908
2675.40116	0.04878
2673.34158	0.04848
2671.28199	0.04824
2669.22241	0.04802
2667.16282	0.04800
2665.10324	0.04813
2663.04365	0.04813
2660.98407	0.04806
2658.92448	0.04799
2656.86490	0.04782
2654.80531	0.04762
2652.74573	0.04740
2650.68614	0.04716
2648.62656	0.04696
2646.56697	0.04680
2644.50739	0.04652
2642.44780	0.04621
2640.38822	0.04609
2638.32863	0.04602
2636.26904	0.04572
2634.20946	0.04535
2632.14987	0.04536
2630.09029	0.04573
2628.03070	0.04557
2625.97112	0.04483
2623.91153	0.04443
2621.85195	0.04461
2619.79236	0.04475
2617.73278	0.04443
2615.67319	0.04403
2613.61361	0.04397
2611.55402	0.04395
2609.49444	0.04359
2607.43485	0.04319
2605.37527	0.04281
2603.31568	0.04230
2601.25610	0.04200
2599.19651	0.04204
2597.13693	0.04207
2595.07734	0.04201
2593.01776	0.04198
2590.95817	0.04168
2588.89859	0.04119
2586.83900	0.04104
2584.77942	0.04120
2582.71983	0.04101
2580.66024	0.04019
2578.60066	0.03952
2576.54107	0.03951
2574.48149	0.03958
2572.42190	0.03936
2570.36232	0.03929
2568.30273	0.03960
2566.24315	0.03980
2564.18356	0.03945
2562.12398	0.03879
2560.06439	0.03827
2558.00481	0.03826
2555.94522	0.03847
2553.88564	0.03820
2551.82605	0.03777
2549.76647	0.03779
2547.70688	0.03790
2545.64730	0.03785
2543.58771	0.03773
2541.52813	0.03752
2539.46854	0.03752
2537.40896	0.03776
2535.34937	0.03761
2533.28979	0.03705
2531.23020	0.03673
2529.17062	0.03653
2527.11103	0.03619
2525.05144	0.03618
2522.99186	0.03640
2520.93227	0.03635
2518.87269	0.03624
2516.81310	0.03605
2514.75352	0.03568
2512.69393	0.03555
2510.63435	0.03562
2508.57476	0.03565
2506.51518	0.03577
2504.45559	0.03588
2502.39601	0.03571
2500.33642	0.03527
2498.27684	0.03491
2496.21725	0.03502
2494.15767	0.03518
2492.09808	0.03485
2490.03850	0.03458
2487.97891	0.03494
2485.91933	0.03543
2483.85974	0.03557
2481.80016	0.03543
2479.74057	0.03507
2477.68099	0.03457
2475.62140	0.03416
2473.56181	0.03399
2471.50223	0.03389
2469.44264	0.03375
2467.38306	0.03356
2465.32347	0.03340
2463.26389	0.03348
2461.20430	0.03356
2459.14472	0.03342
2457.08513	0.03329
2455.02555	0.03315
2452.96596	0.03303
2450.90638	0.03300
2448.84679	0.03284
2446.78721	0.03244
2444.72762	0.03239
2442.66804	0.03268
2440.60845	0.03240
2438.54887	0.03196
2436.48928	0.03228
2434.42970	0.03272
2432.37011	0.03254
2430.31053	0.03218
2428.25094	0.03211
2426.19136	0.03205
2424.13177	0.03202
2422.07219	0.03197
2420.01260	0.03164
2417.95301	0.03147
2415.89343	0.03158
2413.83384	0.03154
2411.77426	0.03149
2409.71467	0.03155
2407.65509	0.03138
2405.59550	0.03114
2403.53592	0.03106
2401.47633	0.03107
2399.41675	0.03110
2397.35716	0.03099
2395.29758	0.03088
2393.23799	0.03075
2391.17841	0.03050
2389.11882	0.03023
2387.05924	0.03012
2384.99965	0.03029
2382.94007	0.03071
2380.88048	0.03096
2378.82090	0.03087
2376.76131	0.03104
2374.70173	0.03079
2372.64214	0.03070
2370.58256	0.03145
2368.52297	0.03191
2366.46338	0.03235
2364.40380	0.03195
2362.34421	0.03169
2360.28463	0.03269
2358.22504	0.03266
2356.16546	0.03260
2354.10587	0.03206
2352.04629	0.03103
2349.98670	0.03209
2347.92712	0.03156
2345.86753	0.03070
2343.80795	0.03094
2341.74836	0.02996
2339.68878	0.03052
2337.62919	0.03079
2335.56961	0.03065
2333.51002	0.03196
2331.45044	0.03201
2329.39085	0.03245
2327.33127	0.03159
2325.27168	0.03147
2323.21210	0.03109
2321.15251	0.03095
2319.09293	0.03092
2317.03334	0.03047
2314.97376	0.03024
2312.91417	0.02991
2310.85458	0.02949
2308.79500	0.02947
2306.73541	0.02968
2304.67583	0.02972
2302.61624	0.02939
2300.55666	0.02902
2298.49707	0.02875
2296.43749	0.02898
2294.37790	0.02934
2292.31832	0.02957
2290.25873	0.02974
2288.19915	0.02988
2286.13956	0.02982
2284.07998	0.02984
2282.02039	0.02966
2279.96081	0.02896
2277.90122	0.02840
2275.84164	0.02847
2273.78205	0.02863
2271.72247	0.02861
2269.66288	0.02867
2267.60330	0.02860
2265.54371	0.02808
2263.48413	0.02704
2261.42454	0.02612
2259.36495	0.02608
2257.30537	0.02640
2255.24578	0.02614
2253.18620	0.02569
2251.12661	0.02590
2249.06703	0.02626
2247.00744	0.02600
2244.94786	0.02595
2242.88827	0.02626
2240.82869	0.02603
2238.76910	0.02575
2236.70952	0.02627
2234.64993	0.02676
2232.59035	0.02664
2230.53076	0.02606
2228.47118	0.02525
2226.41159	0.02489
2224.35201	0.02480
2222.29242	0.02462
2220.23284	0.02452
2218.17325	0.02465
2216.11367	0.02487
2214.05408	0.02526
2211.99450	0.02594
2209.93491	0.02617
2207.87533	0.02575
2205.81574	0.02547
2203.75615	0.02537
2201.69657	0.02514
2199.63698	0.02504
2197.57740	0.02535
2195.51781	0.02577
2193.45823	0.02576
2191.39864	0.02537
2189.33906	0.02502
2187.27947	0.02513
2185.21989	0.02534
2183.16030	0.02492
2181.10072	0.02458
2179.04113	0.02478
2176.98155	0.02430
2174.92196	0.02338
2172.86238	0.02320
2170.80279	0.02365
2168.74321	0.02478
2166.68362	0.02606
2164.62404	0.02699
2162.56445	0.02730
2160.50487	0.02508
2158.44528	0.02129
2156.38570	0.01977
2154.32611	0.02051
2152.26652	0.02156
2150.20694	0.02241
2148.14735	0.02298
2146.08777	0.02298
2144.02818	0.02280
2141.96860	0.02289
2139.90901	0.02258
2137.84943	0.02206
2135.78984	0.02221
2133.73026	0.02216
2131.67067	0.02190
2129.61109	0.02232
2127.55150	0.02300
2125.49192	0.02363
2123.43233	0.02415
2121.37275	0.02447
2119.31316	0.02485
2117.25358	0.02497
2115.19399	0.02449
2113.13441	0.02422
2111.07482	0.02429
2109.01524	0.02432
2106.95565	0.02449
2104.89607	0.02446
2102.83648	0.02403
2100.77690	0.02383
2098.71731	0.02423
2096.65772	0.02433
2094.59814	0.02365
2092.53855	0.02294
2090.47897	0.02280
2088.41938	0.02317
2086.35980	0.02351
2084.30021	0.02353
2082.24063	0.02338
2080.18104	0.02319
2078.12146	0.02289
2076.06187	0.02265
2074.00229	0.02258
2071.94270	0.02251
2069.88312	0.02254
2067.82353	0.02293
2065.76395	0.02326
2063.70436	0.02290
2061.64478	0.02234
2059.58519	0.02224
2057.52561	0.02201
2055.46602	0.02126
2053.40644	0.02120
2051.34685	0.02238
2049.28727	0.02323
2047.22768	0.02293
2045.16810	0.02220
2043.10851	0.02121
2041.04892	0.02025
2038.98934	0.01944
2036.92975	0.01877
2034.87017	0.01875
2032.81058	0.01902
2030.75100	0.01932
2028.69141	0.02001
2026.63183	0.02057
2024.57224	0.02042
2022.51266	0.01979
2020.45307	0.01934
2018.39349	0.01903
2016.33390	0.01830
2014.27432	0.01777
2012.21473	0.01771
2010.15515	0.01765
2008.09556	0.01727
2006.03598	0.01723
2003.97639	0.01808
2001.91681	0.01855
1999.85722	0.01820
1997.79764	0.01842
1995.73805	0.01930
1993.67847	0.01943
1991.61888	0.01896
1989.55929	0.01878
1987.49971	0.01900
1985.44012	0.01970
1983.38054	0.02008
1981.32095	0.01964
1979.26137	0.01873
1977.20178	0.01770
1975.14220	0.01762
1973.08261	0.01851
1971.02303	0.01901
1968.96344	0.01906
1966.90386	0.01891
1964.84427	0.01816
1962.78469	0.01703
1960.72510	0.01620
1958.66552	0.01675
1956.60593	0.01837
1954.54635	0.01867
1952.48676	0.01721
1950.42718	0.01620
1948.36759	0.01651
1946.30801	0.01721
1944.24842	0.01779
1942.18884	0.01820
1940.12925	0.01808
1938.06967	0.01764
1936.01008	0.01757
1933.95049	0.01774
1931.89091	0.01758
1929.83132	0.01712
1927.77174	0.01648
1925.71215	0.01598
1923.65257	0.01615
1921.59298	0.01686
1919.53340	0.01743
1917.47381	0.01756
1915.41423	0.01729
1913.35464	0.01704
1911.29506	0.01720
1909.23547	0.01762
1907.17589	0.01794
1905.11630	0.01805
1903.05672	0.01792
1900.99713	0.01751
1898.93755	0.01698
1896.87796	0.01680
1894.81838	0.01708
1892.75879	0.01745
1890.69921	0.01756
1888.63962	0.01741
1886.58004	0.01735
1884.52045	0.01735
1882.46086	0.01703
1880.40128	0.01653
1878.34169	0.01640
1876.28211	0.01653
1874.22252	0.01643
1872.16294	0.01615
1870.10335	0.01610
1868.04377	0.01631
1865.98418	0.01634
1863.92460	0.01611
1861.86501	0.01597
1859.80543	0.01610
1857.74584	0.01629
1855.68626	0.01644
1853.62667	0.01650
1851.56709	0.01646
1849.50750	0.01645
1847.44792	0.01653
1845.38833	0.01651
1843.32875	0.01634
1841.26916	0.01623
1839.20958	0.01628
1837.14999	0.01642
1835.09041	0.01657
1833.03082	0.01662
1830.97124	0.01654
1828.91165	0.01635
1826.85206	0.01617
1824.79248	0.01613
1822.73289	0.01624
1820.67331	0.01636
1818.61372	0.01635
1816.55414	0.01628
1814.49455	0.01636
1812.43497	0.01649
1810.37538	0.01638
1808.31580	0.01611
1806.25621	0.01600
1804.19663	0.01613
1802.13704	0.01637
1800.07746	0.01663
1798.01787	0.01674
1795.95829	0.01657
1793.89870	0.01629
1791.83912	0.01621
1789.77953	0.01633
1787.71995	0.01641
1785.66036	0.01643
1783.60078	0.01646
1781.54119	0.01653
1779.48161	0.01665
1777.42202	0.01673
1775.36243	0.01674
1773.30285	0.01681
1771.24326	0.01693
1769.18368	0.01698
1767.12409	0.01703
1765.06451	0.01714
1763.00492	0.01728
1760.94534	0.01753
1758.88575	0.01789
1756.82617	0.01819
1754.76658	0.01836
1752.70700	0.01858
1750.64741	0.01899
1748.58783	0.01951
1746.52824	0.02008
1744.46866	0.02061
1742.40907	0.02096
1740.34949	0.02107
1738.28990	0.02109
1736.23032	0.02117
1734.17073	0.02138
1732.11115	0.02172
1730.05156	0.02209
1727.99198	0.02245
1725.93239	0.02288
1723.87281	0.02340
1721.81322	0.02391
1719.75363	0.02451
1717.69405	0.02554
1715.63446	0.02698
1713.57488	0.02845
1711.51529	0.03011
1709.45571	0.03231
1707.39612	0.03548
1705.33654	0.03986
1703.27695	0.04517
1701.21737	0.05243
1699.15778	0.06169
1697.09820	0.06986
1695.03861	0.07644
1692.97903	0.08202
1690.91944	0.08741
1688.85986	0.09327
1686.80027	0.09958
1684.74069	0.10816
1682.68110	0.11850
1680.62152	0.12660
1678.56193	0.13304
1676.50235	0.14020
1674.44276	0.14857
1672.38318	0.15682
1670.32359	0.16599
1668.26401	0.17649
1666.20442	0.18563
1664.14483	0.19467
1662.08525	0.20586
1660.02566	0.21677
1657.96608	0.22493
1655.90649	0.23167
1653.84691	0.24009
1651.78732	0.24863
1649.72774	0.25225
1647.66815	0.25335
1645.60857	0.25437
1643.54898	0.25438
1641.48940	0.25331
1639.42981	0.25188
1637.37023	0.25064
1635.31064	0.24972
1633.25106	0.24858
1631.19147	0.24700
1629.13189	0.24541
1627.07230	0.24410
1625.01272	0.24290
1622.95313	0.24154
1620.89355	0.23957
1618.83396	0.23616
1616.77438	0.23031
1614.71479	0.22248
1612.65520	0.21381
1610.59562	0.20389
1608.53603	0.19272
1606.47645	0.18149
1604.41686	0.17105
1602.35728	0.16148
1600.29769	0.15290
1598.23811	0.14544
1596.17852	0.13883
1594.11894	0.13288
1592.05935	0.12771
1589.99977	0.12338
1587.94018	0.11996
1585.88060	0.11753
1583.82101	0.11604
1581.76143	0.11525
1579.70184	0.11486
1577.64226	0.11499
1575.58267	0.11594
1573.52309	0.11728
1571.46350	0.11897
1569.40392	0.12190
1567.34433	0.12574
1565.28475	0.12956
1563.22516	0.13309
1561.16558	0.13763
1559.10599	0.14665
1557.04640	0.15803
1554.98682	0.16628
1552.92723	0.17318
1550.86765	0.18047
1548.80806	0.18775
1546.74848	0.19382
1544.68889	0.19869
1542.62931	0.20315
1540.56972	0.20766
1538.51014	0.21098
1536.45055	0.21178
1534.39097	0.21150
1532.33138	0.21134
1530.27180	0.21104
1528.21221	0.21035
1526.15263	0.20944
1524.09304	0.20852
1522.03346	0.20788
1519.97387	0.20748
1517.91429	0.20655
1515.85470	0.20435
1513.79512	0.20067
1511.73553	0.19586
1509.67595	0.18973
1507.61636	0.18079
1505.55677	0.17020
1503.49719	0.16226
1501.43760	0.15586
1499.37802	0.14865
1497.31843	0.14038
1495.25885	0.13242
1493.19926	0.12576
1491.13968	0.11931
1489.08009	0.11242
1487.02051	0.10656
1484.96092	0.10246
1482.90134	0.09959
1480.84175	0.09764
1478.78217	0.09668
1476.72258	0.09687
1474.66300	0.09847
1472.60341	0.10134
1470.54383	0.10391
1468.48424	0.10518
1466.42466	0.10587
1464.36507	0.10677
1462.30549	0.10770
1460.24590	0.10853
1458.18632	0.11006
1456.12673	0.11234
1454.06715	0.11357
1452.00756	0.11331
1449.94797	0.11230
1447.88839	0.11099
1445.82880	0.10946
1443.76922	0.10777
1441.70963	0.10597
1439.65005	0.10418
1437.59046	0.10236
1435.53088	0.10040
1433.47129	0.09853
1431.41171	0.09704
1429.35212	0.09617
1427.29254	0.09598
1425.23295	0.09635
1423.17337	0.09722
1421.11378	0.09864
1419.05420	0.10073
1416.99461	0.10283
1414.93503	0.10405
1412.87544	0.10469
1410.81586	0.10521
1408.75627	0.10547
1406.69669	0.10532
1404.63710	0.10493
1402.57752	0.10443
1400.51793	0.10381
1398.45834	0.10323
1396.39876	0.10293
1394.33917	0.10289
1392.27959	0.10283
1390.22000	0.10263
1388.16042	0.10232
1386.10083	0.10182
1384.04125	0.10094
1381.98166	0.09968
1379.92208	0.09829
1377.86249	0.09695
1375.80291	0.09563
1373.74332	0.09435
1371.68374	0.09330
1369.62415	0.09237
1367.56457	0.09113
1365.50498	0.08936
1363.44540	0.08740
1361.38581	0.08580
1359.32623	0.08474
1357.26664	0.08409
1355.20706	0.08373
1353.14747	0.08363
1351.08789	0.08373
1349.02830	0.08402
1346.96872	0.08451
1344.90913	0.08521
1342.84954	0.08601
1340.78996	0.08680
1338.73037	0.08753
1336.67079	0.08812
1334.61120	0.08846
1332.55162	0.08855
1330.49203	0.08850
1328.43245	0.08842
1326.37286	0.08833
1324.31328	0.08821
1322.25369	0.08813
1320.19411	0.08816
1318.13452	0.08826
1316.07494	0.08830
1314.01535	0.08822
1311.95577	0.08803
1309.89618	0.08777
1307.83660	0.08753
1305.77701	0.08727
1303.71743	0.08689
1301.65784	0.08642
1299.59826	0.08594
1297.53867	0.08553
1295.47909	0.08513
1293.41950	0.08474
1291.35991	0.08436
1289.30033	0.08404
1287.24074	0.08387
1285.18116	0.08386
1283.12157	0.08382
1281.06199	0.08370
1279.00240	0.08355
1276.94282	0.08342
1274.88323	0.08342
1272.82365	0.08354
1270.76406	0.08369
1268.70448	0.08387
1266.64489	0.08419
1264.58531	0.08470
1262.52572	0.08541
1260.46614	0.08620
1258.40655	0.08696
1256.34697	0.08773
1254.28738	0.08853
1252.22780	0.08929
1250.16821	0.08998
1248.10863	0.09064
1246.04904	0.09125
1243.98946	0.09170
1241.92987	0.09190
1239.87029	0.09189
1237.81070	0.09169
1235.75111	0.09134
1233.69153	0.09078
1231.63194	0.08993
1229.57236	0.08878
1227.51277	0.08740
1225.45319	0.08591
1223.39360	0.08441
1221.33402	0.08288
1219.27443	0.08136
1217.21485	0.07978
1215.15526	0.07810
1213.09568	0.07648
1211.03609	0.07503
1208.97651	0.07367
1206.91692	0.07229
1204.85734	0.07091
1202.79775	0.06954
1200.73817	0.06823
1198.67858	0.06705
1196.61900	0.06603
1194.55941	0.06509
1192.49983	0.06418
1190.44024	0.06343
1188.38066	0.06287
1186.32107	0.06240
1184.26149	0.06202
1182.20190	0.06199
1180.14231	0.06248
1178.08273	0.06333
1176.02314	0.06438
1173.96356	0.06559
1171.90397	0.06682
1169.84439	0.06793
1167.78480	0.06889
1165.72522	0.06966
1163.66563	0.07018
1161.60605	0.07045
1159.54646	0.07051
1157.48688	0.07033
1155.42729	0.06990
1153.36771	0.06931
1151.30812	0.06859
1149.24854	0.06783
1147.18895	0.06717
1145.12937	0.06665
1143.06978	0.06629
1141.01020	0.06619
1138.95061	0.06633
1136.89103	0.06664
1134.83144	0.06711
1132.77186	0.06765
1130.71227	0.06825
1128.65268	0.06904
1126.59310	0.06980
1124.53351	0.07021
1122.47393	0.07033
1120.41434	0.07037
1118.35476	0.07044
1116.29517	0.07065
1114.23559	0.07100
1112.17600	0.07131
1110.11642	0.07160
1108.05683	0.07191
1105.99725	0.07219
1103.93766	0.07249
1101.87808	0.07280
1099.81849	0.07314
1097.75891	0.07348
1095.69932	0.07383
1093.63974	0.07429
1091.58015	0.07496
1089.52057	0.07591
1087.46098	0.07718
1085.40140	0.07858
1083.34181	0.07992
1081.28223	0.08113
1079.22264	0.08217
1077.16306	0.08300
1075.10347	0.08353
1073.04388	0.08358
1070.98430	0.08321
1068.92471	0.08272
1066.86513	0.08226
1064.80554	0.08177
1062.74596	0.08120
1060.68637	0.08056
1058.62679	0.07984
1056.56720	0.07918
1054.50762	0.07864
1052.44803	0.07823
1050.38845	0.07790
1048.32886	0.07748
1046.26928	0.07684
1044.20969	0.07583
1042.15011	0.07452
1040.09052	0.07316
1038.03094	0.07176
1035.97135	0.07033
1033.91177	0.06902
1031.85218	0.06786
1029.79260	0.06659
1027.73301	0.06499
1025.67343	0.06321
1023.61384	0.06146
1021.55425	0.05978
1019.49467	0.05818
1017.43508	0.05667
1015.37550	0.05532
1013.31591	0.05423
1011.25633	0.05320
1009.19674	0.05198
1007.13716	0.05069
1005.07757	0.04963
1003.01799	0.04882
1000.95840	0.04806
998.89882	0.04738
996.83923	0.04684
994.77965	0.04631
992.72006	0.04570
990.66048	0.04513
988.60089	0.04470
986.54131	0.04428
984.48172	0.04381
982.42214	0.04343
980.36255	0.04313
978.30297	0.04282
976.24338	0.04245
974.18380	0.04208
972.12421	0.04159
970.06463	0.04105
968.00504	0.04061
965.94545	0.04021
963.88587	0.03981
961.82628	0.03944
959.76670	0.03914
957.70711	0.03892
955.64753	0.03872
953.58794	0.03856
951.52836	0.03844
949.46877	0.03830
947.40919	0.03818
945.34960	0.03821
943.29002	0.03836
941.23043	0.03849
939.17085	0.03872
937.11126	0.03903
935.05168	0.03915
932.99209	0.03908
930.93251	0.03895
928.87292	0.03882
926.81334	0.03870
924.75375	0.03856
922.69417	0.03834
920.63458	0.03800
918.57500	0.03760
916.51541	0.03721
914.45582	0.03682
912.39624	0.03650
910.33665	0.03629
908.27707	0.03616
906.21748	0.03614
904.15790	0.03626
902.09831	0.03652
900.03873	0.03678
897.97914	0.03692
895.91956	0.03683
893.85997	0.03655
891.80039	0.03624
889.74080	0.03599
887.68122	0.03566
885.62163	0.03525
883.56205	0.03492
881.50246	0.03479
879.44288	0.03473
877.38329	0.03468
875.32371	0.03478
873.26412	0.03491
871.20454	0.03482
869.14495	0.03465
867.08537	0.03461
865.02578	0.03464
862.96620	0.03468
860.90661	0.03476
858.84702	0.03491
856.78744	0.03509
854.72785	0.03521
852.66827	0.03530
850.60868	0.03533
848.54910	0.03532
846.48951	0.03529
844.42993	0.03520
842.37034	0.03520
840.31076	0.03545
838.25117	0.03586
836.19159	0.03627
834.13200	0.03666
832.07242	0.03715
830.01283	0.03765
827.95325	0.03799
825.89366	0.03819
823.83408	0.03830
821.77449	0.03822
819.71491	0.03819
817.65532	0.03843
815.59574	0.03883
813.53615	0.03930
811.47657	0.03984
809.41698	0.04035
807.35740	0.04068
805.29781	0.04090
803.23822	0.04109
801.17864	0.04135
799.11905	0.04171
797.05947	0.04214
794.99988	0.04261
792.94030	0.04306
790.88071	0.04355
788.82113	0.04420
786.76154	0.04477
784.70196	0.04516
782.64237	0.04548
780.58279	0.04588
778.52320	0.04642
776.46362	0.04691
774.40403	0.04738
772.34445	0.04789
770.28486	0.04836
768.22528	0.04871
766.16569	0.04894
764.10611	0.04925
762.04652	0.04975
759.98694	0.05026
757.92735	0.05077
755.86777	0.05134
753.80818	0.05181
751.74859	0.05222
749.68901	0.05276
747.62942	0.05341
745.56984	0.05384
743.51025	0.05404
741.45067	0.05428
739.39108	0.05444
737.33150	0.05456
735.27191	0.05484
733.21233	0.05526
731.15274	0.05585
729.09316	0.05652
727.03357	0.05720
724.97399	0.05799
722.91440	0.05890
720.85482	0.05975
718.79523	0.06061
716.73565	0.06125
714.67606	0.06205
712.61648	0.06303
710.55689	0.06396
708.49731	0.06487
706.43772	0.06595
704.37814	0.06719
702.31855	0.06838
700.25897	0.06926
698.19938	0.06974
696.13979	0.06987
694.08021	0.06978
692.02062	0.06961
689.96104	0.06964
687.90145	0.06988
685.84187	0.07010
683.78228	0.07036
681.72270	0.07088
679.66311	0.07146
677.60353	0.07176
675.54394	0.07180
673.48436	0.07186
671.42477	0.07294
669.36519	0.07486
667.30560	0.07250
665.24602	0.07412
663.18643	0.07402
661.12685	0.07385
659.06726	0.07392
657.00768	0.07409
654.94809	0.07427
652.88851	0.07446
650.82892	0.07473
648.76934	0.07493
646.70975	0.07505
644.65016	0.07515
642.59058	0.07533
640.53099	0.07550
638.47141	0.07568
636.41182	0.07597
634.35224	0.07638
632.29265	0.07679
630.23307	0.07709
628.17348	0.07731
626.11390	0.07751
624.05431	0.07773
621.99473	0.07797
619.93514	0.07800
617.87556	0.07788
615.81597	0.07810
613.75639	0.07846
611.69680	0.07846
609.63722	0.07827
607.57763	0.07822
605.51805	0.07817
603.45846	0.07800
601.39888	0.07786
599.33929	0.07784
597.27971	0.07785
595.22012	0.07785
593.16054	0.07795
591.10095	0.07798
589.04136	0.07788
586.98178	0.07792
584.92219	0.07801
582.86261	0.07806
580.80302	0.07812
578.74344	0.07814
576.68385	0.07806
574.62427	0.07808
572.56468	0.07824
570.50510	0.07839
568.44551	0.07848
566.38593	0.07844
564.32634	0.07819
562.26676	0.07797
560.20717	0.07790
558.14759	0.07798
556.08800	0.07819
554.02842	0.07831
551.96883	0.07822
549.90925	0.07808
547.84966	0.07798
545.79008	0.07789
543.73049	0.07770
541.67091	0.07743
539.61132	0.07737
537.55173	0.07745
535.49215	0.07729
533.43256	0.07701
531.37298	0.07691
529.31339	0.07686
527.25381	0.07674
525.19422	0.07665
523.13464	0.07660
521.07505	0.07667
519.01547	0.07676
516.95588	0.07665
514.89630	0.07639
512.83671	0.07607
510.77713	0.07556
508.71754	0.07493
506.65796	0.07455
504.59837	0.07421
502.53879	0.07346
500.47920	0.07266
498.41962	0.07233
496.36003	0.07224
494.30045	0.07202
492.24086	0.07184
490.18128	0.07180
488.12169	0.07153
486.06211	0.07089
484.00252	0.07017
481.94293	0.06978
479.88335	0.06984
477.82376	0.06987
475.76418	0.06954
473.70459	0.06919
471.64501	0.06908
469.58542	0.06904
467.52584	0.06900
465.46625	0.06882
463.40667	0.06836
461.34708	0.06787
459.28750	0.06752
457.22791	0.06726
455.16833	0.06708
453.10874	0.06689
451.04916	0.06650
448.98957	0.06588
446.92999	0.06526
444.87040	0.06487
442.81082	0.06462
440.75123	0.06405
438.69165	0.06306
436.63206	0.06212
434.57248	0.06169
432.51289	0.06154
430.45330	0.06131
428.39372	0.06109
426.33413	0.06112
424.27455	0.06125
422.21496	0.06113
420.15538	0.06057
418.09579	0.05986
416.03621	0.05942
413.97662	0.05917
411.91704	0.05878
409.85745	0.05817
407.79787	0.05757
405.73828	0.05713
403.67870	0.05667
401.61911	0.05609
399.55953	0.05567
