3997.65486	0.09419
3995.59527	0.09472
3993.53569	0.09525
3991.47610	0.09537
3989.41652	0.09546
3987.35693	0.09519
3985.29735	0.09420
3983.23776	0.09354
3981.17817	0.09395
3979.11859	0.09467
3977.05900	0.09419
3974.99942	0.09293
3972.93983	0.09235
3970.88025	0.09265
3968.82066	0.09304
3966.76108	0.09320
3964.70149	0.09295
3962.64191	0.09261
3960.58232	0.09304
3958.52274	0.09336
3956.46315	0.09311
3954.40357	0.09274
3952.34398	0.09195
3950.28440	0.09133
3948.22481	0.09256
3946.16523	0.09441
3944.10564	0.09368
3942.04606	0.09267
3939.98647	0.09288
3937.92689	0.09262
3935.86730	0.09226
3933.80772	0.09102
3931.74813	0.09012
3929.68855	0.09134
3927.62896	0.09210
3925.56937	0.09096
3923.50979	0.09145
3921.45020	0.09279
3919.39062	0.09215
3917.33103	0.09106
3915.27145	0.09147
3913.21186	0.09180
3911.15228	0.09159
3909.09269	0.09226
3907.03311	0.09156
3904.97352	0.08945
3902.91394	0.08982
3900.85435	0.09041
3898.79477	0.09106
3896.73518	0.09370
3894.67560	0.09307
3892.61601	0.08899
3890.55643	0.08953
3888.49684	0.09185
3886.43726	0.08932
3884.37767	0.08924
3882.31809	0.08873
3880.25850	0.08679
3878.19892	0.08975
3876.13933	0.09004
3874.07974	0.08862
3872.02016	0.08844
3869.96057	0.08792
3867.90099	0.09084
3865.84140	0.08963
3863.78182	0.08743
3861.72223	0.09006
3859.66265	0.09323
3857.60306	0.09248
3855.54348	0.08457
3853.48389	0.07808
3851.42431	0.08519
3849.36472	0.09140
3847.30514	0.09117
3845.24555	0.08880
3843.18597	0.08772
3841.12638	0.08697
3839.06680	0.08484
3837.00721	0.08612
3834.94763	0.08908
3832.88804	0.08865
3830.82846	0.08786
3828.76887	0.08741
3826.70929	0.08693
3824.64970	0.08726
3822.59012	0.08346
3820.53053	0.08369
3818.47094	0.08748
3816.41136	0.08448
3814.35177	0.08532
3812.29219	0.08839
3810.23260	0.08673
3808.17302	0.08236
3806.11343	0.08343
3804.05385	0.08531
3801.99426	0.08149
3799.93468	0.08368
3797.87509	0.08551
3795.81551	0.08426
3793.75592	0.08479
3791.69634	0.08415
3789.63675	0.08308
3787.57717	0.08239
3785.51758	0.08173
3783.45800	0.08243
3781.39841	0.08162
3779.33883	0.08003
3777.27924	0.08208
3775.21966	0.08421
3773.16007	0.08435
3771.10049	0.08294
3769.04090	0.08312
3766.98132	0.08352
3764.92173	0.08368
3762.86214	0.08507
3760.80256	0.08330
3758.74297	0.08219
3756.68339	0.08460
3754.62380	0.08388
3752.56422	0.07746
3750.50463	0.07548
3748.44505	0.08220
3746.38546	0.08248
3744.32588	0.07873
3742.26629	0.08340
3740.20671	0.08529
3738.14712	0.08046
3736.08754	0.07489
3734.02795	0.07551
3731.96837	0.08015
3729.90878	0.08345
3727.84920	0.08134
3725.78961	0.07779
3723.73003	0.07676
3721.67044	0.07712
3719.61086	0.07864
3717.55127	0.08056
3715.49169	0.08070
3713.43210	0.07666
3711.37251	0.07398
3709.31293	0.07734
3707.25334	0.08104
3705.19376	0.08045
3703.13417	0.07610
3701.07459	0.07401
3699.01500	0.07566
3696.95542	0.07668
3694.89583	0.07782
3692.83625	0.07742
3690.77666	0.07410
3688.71708	0.07330
3686.65749	0.07744
3684.59791	0.07943
3682.53832	0.07832
3680.47874	0.07759
3678.41915	0.07618
3676.35957	0.07321
3674.29998	0.07794
3672.24040	0.08063
3670.18081	0.07524
3668.12123	0.07647
3666.06164	0.07925
3664.00206	0.07788
3661.94247	0.07651
3659.88289	0.07613
3657.82330	0.07439
3655.76371	0.07532
3653.70413	0.07864
3651.64454	0.07533
3649.58496	0.07157
3647.52537	0.07546
3645.46579	0.08025
3643.40620	0.08043
3641.34662	0.07893
3639.28703	0.07896
3637.22745	0.07983
3635.16786	0.08056
3633.10828	0.08110
3631.04869	0.07764
3628.98911	0.07328
3626.92952	0.07903
3624.86994	0.08465
3622.81035	0.08379
3620.75077	0.08010
3618.69118	0.08004
3616.63160	0.08351
3614.57201	0.08393
3612.51243	0.08392
3610.45284	0.08477
3608.39326	0.08449
3606.33367	0.08596
3604.27408	0.08707
3602.21450	0.08595
3600.15491	0.08570
3598.09533	0.08671
3596.03574	0.08690
3593.97616	0.08789
3591.91657	0.08937
3589.85699	0.08736
3587.79740	0.08477
3585.73782	0.08771
3583.67823	0.09106
3581.61865	0.09104
3579.55906	0.09062
3577.49948	0.09119
3575.43989	0.09215
3573.38031	0.09380
3571.32072	0.09497
3569.26114	0.09297
3567.20155	0.09095
3565.14197	0.09360
3563.08238	0.09591
3561.02280	0.09546
3558.96321	0.09566
3556.90363	0.09692
3554.84404	0.09737
3552.78446	0.09761
3550.72487	0.09944
3548.66528	0.10031
3546.60570	0.09929
3544.54611	0.09963
3542.48653	0.10145
3540.42694	0.10259
3538.36736	0.10241
3536.30777	0.10212
3534.24819	0.10282
3532.18860	0.10329
3530.12902	0.10288
3528.06943	0.10266
3526.00985	0.10323
3523.95026	0.10397
3521.89068	0.10523
3519.83109	0.10631
3517.77151	0.10658
3515.71192	0.10682
3513.65234	0.10714
3511.59275	0.10731
3509.53317	0.10797
3507.47358	0.10948
3505.41400	0.10950
3503.35441	0.10851
3501.29483	0.10934
3499.23524	0.11048
3497.17565	0.11078
3495.11607	0.11141
3493.05648	0.11245
3490.99690	0.11290
3488.93731	0.11294
3486.87773	0.11372
3484.81814	0.11454
3482.75856	0.11424
3480.69897	0.11439
3478.63939	0.11501
3476.57980	0.11491
3474.52022	0.11495
3472.46063	0.11563
3470.40105	0.11618
3468.34146	0.11654
3466.28188	0.11754
3464.22229	0.11860
3462.16271	0.11898
3460.10312	0.11955
3458.04354	0.12043
3455.98395	0.12100
3453.92437	0.12109
3451.86478	0.12145
3449.80520	0.12171
3447.74561	0.12125
3445.68603	0.12215
3443.62644	0.12323
3441.56685	0.12317
3439.50727	0.12337
3437.44768	0.12388
3435.38810	0.12430
3433.32851	0.12457
3431.26893	0.12514
3429.20934	0.12649
3427.14976	0.12786
3425.09017	0.12843
3423.03059	0.12823
3420.97100	0.12803
3418.91142	0.12875
3416.85183	0.12989
3414.79225	0.13080
3412.73266	0.13143
3410.67308	0.13197
3408.61349	0.13248
3406.55391	0.13269
3404.49432	0.13317
3402.43474	0.13417
3400.37515	0.13484
3398.31557	0.13490
3396.25598	0.13541
3394.19640	0.13625
3392.13681	0.13704
3390.07723	0.13785
3388.01764	0.13802
3385.95805	0.13781
3383.89847	0.13853
3381.83888	0.14007
3379.77930	0.14091
3377.71971	0.14099
3375.66013	0.14114
3373.60054	0.14171
3371.54096	0.14259
3369.48137	0.14354
3367.42179	0.14491
3365.36220	0.14683
3363.30262	0.14840
3361.24303	0.14930
3359.18345	0.15019
3357.12386	0.15122
3355.06428	0.15244
3353.00469	0.15366
3350.94511	0.15479
3348.88552	0.15658
3346.82594	0.15904
3344.76635	0.16118
3342.70677	0.16284
3340.64718	0.16458
3338.58760	0.16665
3336.52801	0.16888
3334.46842	0.17102
3332.40884	0.17268
3330.34925	0.17407
3328.28967	0.17623
3326.23008	0.17938
3324.17050	0.18255
3322.11091	0.18515
3320.05133	0.18750
3317.99174	0.19012
3315.93216	0.19291
3313.87257	0.19596
3311.81299	0.19926
3309.75340	0.20223
3307.69382	0.20531
3305.63423	0.20852
3303.57465	0.21133
3301.51506	0.21418
3299.45548	0.21758
3297.39589	0.22118
3295.33631	0.22447
3293.27672	0.22750
3291.21714	0.23030
3289.15755	0.23289
3287.09797	0.23556
3285.03838	0.23837
3282.97880	0.24106
3280.91921	0.24345
3278.85962	0.24518
3276.80004	0.24607
3274.74045	0.24641
3272.68087	0.24652
3270.62128	0.24626
3268.56170	0.24518
3266.50211	0.24342
3264.44253	0.24161
3262.38294	0.24009
3260.32336	0.23839
3258.26377	0.23609
3256.20419	0.23351
3254.14460	0.23091
3252.08502	0.22834
3250.02543	0.22574
3247.96585	0.22297
3245.90626	0.22015
3243.84668	0.21810
3241.78709	0.21643
3239.72751	0.21414
3237.66792	0.21185
3235.60834	0.21054
3233.54875	0.20953
3231.48917	0.20765
3229.42958	0.20547
3227.36999	0.20377
3225.31041	0.20223
3223.25082	0.20065
3221.19124	0.19925
3219.13165	0.19828
3217.07207	0.19771
3215.01248	0.19691
3212.95290	0.19548
3210.89331	0.19335
3208.83373	0.19137
3206.77414	0.18993
3204.71456	0.18858
3202.65497	0.18750
3200.59539	0.18641
3198.53580	0.18506
3196.47622	0.18396
3194.41663	0.18305
3192.35705	0.18204
3190.29746	0.18081
3188.23788	0.17923
3186.17829	0.17755
3184.11871	0.17588
3182.05912	0.17427
3179.99954	0.17277
3177.93995	0.17119
3175.88037	0.16954
3173.82078	0.16786
3171.76119	0.16634
3169.70161	0.16502
3167.64202	0.16354
3165.58244	0.16160
3163.52285	0.15969
3161.46327	0.15818
3159.40368	0.15676
3157.34410	0.15528
3155.28451	0.15393
3153.22493	0.15262
3151.16534	0.15118
3149.10576	0.14965
3147.04617	0.14824
3144.98659	0.14690
3142.92700	0.14549
3140.86742	0.14424
3138.80783	0.14321
3136.74825	0.14226
3134.68866	0.14124
3132.62908	0.14027
3130.56949	0.13950
3128.50991	0.13875
3126.45032	0.13807
3124.39074	0.13741
3122.33115	0.13687
3120.27156	0.13642
3118.21198	0.13592
3116.15239	0.13549
3114.09281	0.13510
3112.03322	0.13490
3109.97364	0.13505
3107.91405	0.13503
3105.85447	0.13465
3103.79488	0.13447
3101.73530	0.13466
3099.67571	0.13491
3097.61613	0.13486
3095.55654	0.13482
3093.49696	0.13502
3091.43737	0.13531
3089.37779	0.13591
3087.31820	0.13659
3085.25862	0.13688
3083.19903	0.13682
3081.13945	0.13676
3079.07986	0.13704
3077.02028	0.13749
3074.96069	0.13777
3072.90111	0.13784
3070.84152	0.13775
3068.78194	0.13750
3066.72235	0.13725
3064.66276	0.13706
3062.60318	0.13667
3060.54359	0.13605
3058.48401	0.13550
3056.42442	0.13516
3054.36484	0.13486
3052.30525	0.13432
3050.24567	0.13369
3048.18608	0.13299
3046.12650	0.13199
3044.06691	0.13075
3042.00733	0.12947
3039.94774	0.12845
3037.88816	0.12780
3035.82857	0.12713
3033.76899	0.12621
3031.70940	0.12518
3029.64982	0.12425
3027.59023	0.12321
3025.53065	0.12200
3023.47106	0.12101
3021.41148	0.12047
3019.35189	0.11998
3017.29231	0.11897
3015.23272	0.11771
3013.17313	0.11675
3011.11355	0.11602
3009.05396	0.11545
3006.99438	0.11500
3004.93479	0.11462
3002.87521	0.11442
3000.81562	0.11442
2998.75604	0.11450
2996.69645	0.11453
2994.63687	0.11462
2992.57728	0.11491
2990.51770	0.11527
2988.45811	0.11558
2986.39853	0.11599
2984.33894	0.11656
2982.27936	0.11708
2980.21977	0.11742
2978.16019	0.11758
2976.10060	0.11774
2974.04102	0.11808
2971.98143	0.11851
2969.92185	0.11885
2967.86226	0.11914
2965.80268	0.11952
2963.74309	0.11963
2961.68351	0.11924
2959.62392	0.11861
2957.56433	0.11785
2955.50475	0.11707
2953.44516	0.11675
2951.38558	0.11699
2949.32599	0.11726
2947.26641	0.11731
2945.20682	0.11741
2943.14724	0.11780
2941.08765	0.11856
2939.02807	0.11949
2936.96848	0.12031
2934.90890	0.12081
2932.84931	0.12093
2930.78973	0.12077
2928.73014	0.12025
2926.67056	0.11902
2924.61097	0.11715
2922.55139	0.11488
2920.49180	0.11221
2918.43222	0.10909
2916.37263	0.10651
2914.31305	0.10631
2912.25346	0.10808
2910.19388	0.10934
2908.13429	0.10922
2906.07471	0.10865
2904.01512	0.10828
2901.95553	0.10796
2899.89595	0.10738
2897.83636	0.10668
2895.77678	0.10600
2893.71719	0.10514
2891.65761	0.10420
2889.59802	0.10365
2887.53844	0.10367
2885.47885	0.10378
2883.41927	0.10379
2881.35968	0.10389
2879.30010	0.10389
2877.24051	0.10386
2875.18093	0.10423
2873.12134	0.10461
2871.06176	0.10448
2869.00217	0.10390
2866.94259	0.10310
2864.88300	0.10226
2862.82342	0.10137
2860.76383	0.10045
2858.70425	0.09974
2856.64466	0.09921
2854.58508	0.09826
2852.52549	0.09615
2850.46590	0.09313
2848.40632	0.09133
2846.34673	0.09202
2844.28715	0.09381
2842.22756	0.09506
2840.16798	0.09534
2838.10839	0.09498
2836.04881	0.09444
2833.98922	0.09399
2831.92964	0.09378
2829.87005	0.09373
2827.81047	0.09359
2825.75088	0.09323
2823.69130	0.09277
2821.63171	0.09241
2819.57213	0.09220
2817.51254	0.09186
2815.45296	0.09138
2813.39337	0.09099
2811.33379	0.09075
2809.27420	0.09040
2807.21462	0.09001
2805.15503	0.08989
2803.09545	0.08986
2801.03586	0.08973
2798.97628	0.08959
2796.91669	0.08955
2794.85710	0.08936
2792.79752	0.08883
2790.73793	0.08835
2788.67835	0.08815
2786.61876	0.08809
2784.55918	0.08795
2782.49959	0.08763
2780.44001	0.08737
2778.38042	0.08733
2776.32084	0.08715
2774.26125	0.08651
2772.20167	0.08595
2770.14208	0.08598
2768.08250	0.08610
2766.02291	0.08597
2763.96333	0.08573
2761.90374	0.08548
2759.84416	0.08533
2757.78457	0.08505
2755.72499	0.08448
2753.66540	0.08399
2751.60582	0.08378
2749.54623	0.08358
2747.48665	0.08331
2745.42706	0.08319
2743.36747	0.08308
2741.30789	0.08282
2739.24830	0.08259
2737.18872	0.08222
2735.12913	0.08160
2733.06955	0.08124
2731.00996	0.08107
2728.95038	0.08084
2726.89079	0.08068
2724.83121	0.08049
2722.77162	0.08019
2720.71204	0.07998
2718.65245	0.07988
2716.59287	0.07968
2714.53328	0.07941
2712.47370	0.07920
2710.41411	0.07893
2708.35453	0.07858
2706.29494	0.07834
2704.23536	0.07825
2702.17577	0.07812
2700.11619	0.07780
2698.05660	0.07736
2695.99702	0.07712
2693.93743	0.07713
2691.87785	0.07712
2689.81826	0.07689
2687.75867	0.07654
2685.69909	0.07634
2683.63950	0.07634
2681.57992	0.07620
2679.52033	0.07585
2677.46075	0.07567
2675.40116	0.07561
2673.34158	0.07526
2671.28199	0.07490
2669.22241	0.07483
2667.16282	0.07476
2665.10324	0.07452
2663.04365	0.07422
2660.98407	0.07406
2658.92448	0.07416
2656.86490	0.07437
2654.80531	0.07449
2652.74573	0.07436
2650.68614	0.07410
2648.62656	0.07390
2646.56697	0.07360
2644.50739	0.07320
2642.44780	0.07286
2640.38822	0.07263
2638.32863	0.07250
2636.26904	0.07224
2634.20946	0.07179
2632.14987	0.07142
2630.09029	0.07100
2628.03070	0.07055
2625.97112	0.07049
2623.91153	0.07063
2621.85195	0.07053
2619.79236	0.07025
2617.73278	0.07010
2615.67319	0.06983
2613.61361	0.06935
2611.55402	0.06911
2609.49444	0.06910
2607.43485	0.06884
2605.37527	0.06831
2603.31568	0.06786
2601.25610	0.06762
2599.19651	0.06743
2597.13693	0.06738
2595.07734	0.06762
2593.01776	0.06756
2590.95817	0.06691
2588.89859	0.06626
2586.83900	0.06591
2584.77942	0.06560
2582.71983	0.06545
2580.66024	0.06585
2578.60066	0.06611
2576.54107	0.06557
2574.48149	0.06497
2572.42190	0.06469
2570.36232	0.06464
2568.30273	0.06491
2566.24315	0.06495
2564.18356	0.06445
2562.12398	0.06394
2560.06439	0.06351
2558.00481	0.06321
2555.94522	0.06314
2553.88564	0.06317
2551.82605	0.06323
2549.76647	0.06312
2547.70688	0.06301
2545.64730	0.06306
2543.58771	0.06268
2541.52813	0.06198
2539.46854	0.06171
2537.40896	0.06186
2535.34937	0.06179
2533.28979	0.06146
2531.23020	0.06109
2529.17062	0.06086
2527.11103	0.06118
2525.05144	0.06154
2522.99186	0.06115
2520.93227	0.06060
2518.87269	0.06065
2516.81310	0.06108
2514.75352	0.06105
2512.69393	0.06031
2510.63435	0.05976
2508.57476	0.05988
2506.51518	0.06015
2504.45559	0.06017
2502.39601	0.05995
2500.33642	0.05971
2498.27684	0.05945
2496.21725	0.05925
2494.15767	0.05912
2492.09808	0.05880
2490.03850	0.05857
2487.97891	0.05860
2485.91933	0.05845
2483.85974	0.05805
2481.80016	0.05773
2479.74057	0.05775
2477.68099	0.05822
2475.62140	0.05874
2473.56181	0.05883
2471.50223	0.05841
2469.44264	0.05785
2467.38306	0.05763
2465.32347	0.05763
2463.26389	0.05741
2461.20430	0.05721
2459.14472	0.05753
2457.08513	0.05807
2455.02555	0.05814
2452.96596	0.05773
2450.90638	0.05741
2448.84679	0.05726
2446.78721	0.05721
2444.72762	0.05709
2442.66804	0.05690
2440.60845	0.05711
2438.54887	0.05741
2436.48928	0.05708
2434.42970	0.05641
2432.37011	0.05601
2430.31053	0.05591
2428.25094	0.05599
2426.19136	0.05604
2424.13177	0.05591
2422.07219	0.05577
2420.01260	0.05574
2417.95301	0.05567
2415.89343	0.05546
2413.83384	0.05518
2411.77426	0.05479
2409.71467	0.05469
2407.65509	0.05493
2405.59550	0.05483
2403.53592	0.05445
2401.47633	0.05421
2399.41675	0.05412
2397.35716	0.05425
2395.29758	0.05435
2393.23799	0.05437
2391.17841	0.05417
2389.11882	0.05378
2387.05924	0.05366
2384.99965	0.05381
2382.94007	0.05376
2380.88048	0.05338
2378.82090	0.05302
2376.76131	0.05294
2374.70173	0.05288
2372.64214	0.05261
2370.58256	0.05230
2368.52297	0.05192
2366.46338	0.05138
2364.40380	0.05087
2362.34421	0.05055
2360.28463	0.05053
2358.22504	0.05103
2356.16546	0.05165
2354.10587	0.05192
2352.04629	0.05234
2349.98670	0.05289
2347.92712	0.05268
2345.86753	0.05168
2343.80795	0.05087
2341.74836	0.05051
2339.68878	0.05053
2337.62919	0.05096
2335.56961	0.05130
2333.51002	0.05114
2331.45044	0.05093
2329.39085	0.05136
2327.33127	0.05248
2325.27168	0.05347
2323.21210	0.05347
2321.15251	0.05274
2319.09293	0.05198
2317.03334	0.05150
2314.97376	0.05136
2312.91417	0.05125
2310.85458	0.05095
2308.79500	0.05072
2306.73541	0.05059
2304.67583	0.05018
2302.61624	0.04974
2300.55666	0.04981
2298.49707	0.05025
2296.43749	0.05053
2294.37790	0.05052
2292.31832	0.05052
2290.25873	0.05058
2288.19915	0.05034
2286.13956	0.04969
2284.07998	0.04898
2282.02039	0.04870
2279.96081	0.04867
2277.90122	0.04821
2275.84164	0.04732
2273.78205	0.04650
2271.72247	0.04596
2269.66288	0.04563
2267.60330	0.04523
2265.54371	0.04492
2263.48413	0.04512
2261.42454	0.04536
2259.36495	0.04514
2257.30537	0.04491
2255.24578	0.04505
2253.18620	0.04518
2251.12661	0.04501
2249.06703	0.04460
2247.00744	0.04412
2244.94786	0.04340
2242.88827	0.04304
2240.82869	0.04338
2238.76910	0.04320
2236.70952	0.04224
2234.64993	0.04175
2232.59035	0.04173
2230.53076	0.04166
2228.47118	0.04203
2226.41159	0.04236
2224.35201	0.04234
2222.29242	0.04249
2220.23284	0.04205
2218.17325	0.04086
2216.11367	0.04046
2214.05408	0.04115
2211.99450	0.04143
2209.93491	0.04085
2207.87533	0.04022
2205.81574	0.03985
2203.75615	0.03958
2201.69657	0.03954
2199.63698	0.03973
2197.57740	0.03976
2195.51781	0.03923
2193.45823	0.03854
2191.39864	0.03834
2189.33906	0.03827
2187.27947	0.03773
2185.21989	0.03733
2183.16030	0.03794
2181.10072	0.03780
2179.04113	0.03604
2176.98155	0.03547
2174.92196	0.03605
2172.86238	0.03539
2170.80279	0.03473
2168.74321	0.03562
2166.68362	0.03670
2164.62404	0.03695
2162.56445	0.03732
2160.50487	0.03668
2158.44528	0.03360
2156.38570	0.03185
2154.32611	0.03274
2152.26652	0.03327
2150.20694	0.03317
2148.14735	0.03386
2146.08777	0.03465
2144.02818	0.03446
2141.96860	0.03384
2139.90901	0.03399
2137.84943	0.03472
2135.78984	0.03513
2133.73026	0.03559
2131.67067	0.03639
2129.61109	0.03699
2127.55150	0.03708
2125.49192	0.03722
2123.43233	0.03762
2121.37275	0.03796
2119.31316	0.03816
2117.25358	0.03809
2115.19399	0.03796
2113.13441	0.03813
2111.07482	0.03813
2109.01524	0.03798
2106.95565	0.03835
2104.89607	0.03875
2102.83648	0.03858
2100.77690	0.03836
2098.71731	0.03815
2096.65772	0.03734
2094.59814	0.03646
2092.53855	0.03649
2090.47897	0.03692
2088.41938	0.03759
2086.35980	0.03873
2084.30021	0.03922
2082.24063	0.03838
2080.18104	0.03724
2078.12146	0.03679
2076.06187	0.03654
2074.00229	0.03570
2071.94270	0.03493
2069.88312	0.03520
2067.82353	0.03596
2065.76395	0.03622
2063.70436	0.03596
2061.64478	0.03538
2059.58519	0.03502
2057.52561	0.03510
2055.46602	0.03481
2053.40644	0.03426
2051.34685	0.03408
2049.28727	0.03403
2047.22768	0.03373
2045.16810	0.03297
2043.10851	0.03188
2041.04892	0.03174
2038.98934	0.03277
2036.92975	0.03249
2034.87017	0.03017
2032.81058	0.02814
2030.75100	0.02775
2028.69141	0.02804
2026.63183	0.02819
2024.57224	0.02818
2022.51266	0.02798
2020.45307	0.02782
2018.39349	0.02777
2016.33390	0.02800
2014.27432	0.02844
2012.21473	0.02850
2010.15515	0.02834
2008.09556	0.02823
2006.03598	0.02805
2003.97639	0.02787
2001.91681	0.02787
1999.85722	0.02811
1997.79764	0.02896
1995.73805	0.02999
1993.67847	0.02975
1991.61888	0.02909
1989.55929	0.02923
1987.49971	0.02946
1985.44012	0.02988
1983.38054	0.03013
1981.32095	0.02935
1979.26137	0.02707
1977.20178	0.02506
1975.14220	0.02526
1973.08261	0.02646
1971.02303	0.02720
1968.96344	0.02749
1966.90386	0.02805
1964.84427	0.02866
1962.78469	0.02779
1960.72510	0.02655
1958.66552	0.02671
1956.60593	0.02749
1954.54635	0.02753
1952.48676	0.02734
1950.42718	0.02784
1948.36759	0.02847
1946.30801	0.02841
1944.24842	0.02749
1942.18884	0.02680
1940.12925	0.02725
1938.06967	0.02760
1936.01008	0.02795
1933.95049	0.02840
1931.89091	0.02833
1929.83132	0.02767
1927.77174	0.02736
1925.71215	0.02761
1923.65257	0.02774
1921.59298	0.02866
1919.53340	0.02888
1917.47381	0.02852
1915.41423	0.02889
1913.35464	0.02842
1911.29506	0.02765
1909.23547	0.02766
1907.17589	0.02806
1905.11630	0.02803
1903.05672	0.02798
1900.99713	0.02831
1898.93755	0.02845
1896.87796	0.02784
1894.81838	0.02725
1892.75879	0.02737
1890.69921	0.02710
1888.63962	0.02737
1886.58004	0.02802
1884.52045	0.02769
1882.46086	0.02725
1880.40128	0.02703
1878.34169	0.02682
1876.28211	0.02695
1874.22252	0.02758
1872.16294	0.02782
1870.10335	0.02671
1868.04377	0.02619
1865.98418	0.02690
1863.92460	0.02660
1861.86501	0.02568
1859.80543	0.02543
1857.74584	0.02567
1855.68626	0.02583
1853.62667	0.02581
1851.56709	0.02581
1849.50750	0.02584
1847.44792	0.02563
1845.38833	0.02457
1843.32875	0.02461
1841.26916	0.02605
1839.20958	0.02609
1837.14999	0.02566
1835.09041	0.02605
1833.03082	0.02598
1830.97124	0.02469
1828.91165	0.02451
1826.85206	0.02481
1824.79248	0.02414
1822.73289	0.02431
1820.67331	0.02436
1818.61372	0.02386
1816.55414	0.02384
1814.49455	0.02430
1812.43497	0.02407
1810.37538	0.02366
1808.31580	0.02384
1806.25621	0.02406
1804.19663	0.02388
1802.13704	0.02329
1800.07746	0.02323
1798.01787	0.02395
1795.95829	0.02409
1793.89870	0.02264
1791.83912	0.02179
1789.77953	0.02331
1787.71995	0.02399
1785.66036	0.02325
1783.60078	0.02297
1781.54119	0.02276
1779.48161	0.02304
1777.42202	0.02393
1775.36243	0.02355
1773.30285	0.02177
1771.24326	0.02175
1769.18368	0.02297
1767.12409	0.02335
1765.06451	0.02336
1763.00492	0.02216
1760.94534	0.02186
1758.88575	0.02238
1756.82617	0.02240
1754.76658	0.02334
1752.70700	0.02285
1750.64741	0.02131
1748.58783	0.02163
1746.52824	0.02271
1744.46866	0.02287
1742.40907	0.02231
1740.34949	0.02201
1738.28990	0.02344
1736.23032	0.02303
1734.17073	0.02051
1732.11115	0.02185
1730.05156	0.02324
1727.99198	0.02331
1725.93239	0.02321
1723.87281	0.02352
1721.81322	0.02462
1719.75363	0.02382
1717.69405	0.02254
1715.63446	0.02531
1713.57488	0.02936
1711.51529	0.03238
1709.45571	0.03486
1707.39612	0.03813
1705.33654	0.04435
1703.27695	0.05203
1701.21737	0.05770
1699.15778	0.06586
1697.09820	0.07301
1695.03861	0.07790
1692.97903	0.08322
1690.91944	0.08628
1688.85986	0.08944
1686.80027	0.09207
1684.74069	0.09402
1682.68110	0.10199
1680.62152	0.11017
1678.56193	0.11462
1676.50235	0.11796
1674.44276	0.12397
1672.38318	0.13085
1670.32359	0.13558
1668.26401	0.14282
1666.20442	0.15032
1664.14483	0.15448
1662.08525	0.15969
1660.02566	0.16727
1657.96608	0.17314
1655.90649	0.17513
1653.84691	0.17737
1651.78732	0.18866
1649.72774	0.19650
1647.66815	0.19690
1645.60857	0.20096
1643.54898	0.20751
1641.48940	0.21134
1639.42981	0.21351
1637.37023	0.21474
1635.31064	0.21865
1633.25106	0.22575
1631.19147	0.22910
1629.13189	0.22954
1627.07230	0.23100
1625.01272	0.23206
1622.95313	0.23236
1620.89355	0.23336
1618.83396	0.23095
1616.77438	0.22662
1614.71479	0.22550
1612.65520	0.22385
1610.59562	0.21963
1608.53603	0.21500
1606.47645	0.21037
1604.41686	0.20467
1602.35728	0.19777
1600.29769	0.19037
1598.23811	0.18237
1596.17852	0.17353
1594.11894	0.16454
1592.05935	0.15597
1589.99977	0.14769
1587.94018	0.14007
1585.88060	0.13354
1583.82101	0.12829
1581.76143	0.12460
1579.70184	0.12176
1577.64226	0.11817
1575.58267	0.11698
1573.52309	0.11935
1571.46350	0.11942
1569.40392	0.11954
1567.34433	0.12341
1565.28475	0.12764
1563.22516	0.13125
1561.16558	0.13189
1559.10599	0.13359
1557.04640	0.14402
1554.98682	0.15126
1552.92723	0.15465
1550.86765	0.15798
1548.80806	0.16242
1546.74848	0.16661
1544.68889	0.16923
1542.62931	0.17170
1540.56972	0.17513
1538.51014	0.18287
1536.45055	0.18845
1534.39097	0.18886
1532.33138	0.19155
1530.27180	0.19591
1528.21221	0.19792
1526.15263	0.20029
1524.09304	0.20328
1522.03346	0.20572
1519.97387	0.21075
1517.91429	0.21526
1515.85470	0.21833
1513.79512	0.22089
1511.73553	0.22115
1509.67595	0.21803
1507.61636	0.21162
1505.55677	0.20891
1503.49719	0.20846
1501.43760	0.20393
1499.37802	0.19616
1497.31843	0.18800
1495.25885	0.18196
1493.19926	0.17630
1491.13968	0.16749
1489.08009	0.15812
1487.02051	0.15146
1484.96092	0.14614
1482.90134	0.14054
1480.84175	0.13548
1478.78217	0.13156
1476.72258	0.12730
1474.66300	0.12225
1472.60341	0.11814
1470.54383	0.11763
1468.48424	0.11721
1466.42466	0.11452
1464.36507	0.11329
1462.30549	0.11495
1460.24590	0.11522
1458.18632	0.11451
1456.12673	0.11891
1454.06715	0.12527
1452.00756	0.12827
1449.94797	0.12942
1447.88839	0.13067
1445.82880	0.13225
1443.76922	0.13257
1441.70963	0.13157
1439.65005	0.12937
1437.59046	0.12540
1435.53088	0.12280
1433.47129	0.12136
1431.41171	0.11815
1429.35212	0.11514
1427.29254	0.11379
1425.23295	0.11278
1423.17337	0.11263
1421.11378	0.11243
1419.05420	0.11206
1416.99461	0.11394
1414.93503	0.11543
1412.87544	0.11525
1410.81586	0.11473
1408.75627	0.11427
1406.69669	0.11308
1404.63710	0.11178
1402.57752	0.11100
1400.51793	0.10922
1398.45834	0.10721
1396.39876	0.10582
1394.33917	0.10496
1392.27959	0.10526
1390.22000	0.10499
1388.16042	0.10386
1386.10083	0.10373
1384.04125	0.10402
1381.98166	0.10351
1379.92208	0.10306
1377.86249	0.10299
1375.80291	0.10278
1373.74332	0.10299
1371.68374	0.10380
1369.62415	0.10351
1367.56457	0.10247
1365.50498	0.10090
1363.44540	0.09848
1361.38581	0.09686
1359.32623	0.09607
1357.26664	0.09489
1355.20706	0.09366
1353.14747	0.09293
1351.08789	0.09239
1349.02830	0.09192
1346.96872	0.09181
1344.90913	0.09207
1342.84954	0.09220
1340.78996	0.09171
1338.73037	0.09149
1336.67079	0.09184
1334.61120	0.09169
1332.55162	0.09091
1330.49203	0.08991
1328.43245	0.08880
1326.37286	0.08769
1324.31328	0.08678
1322.25369	0.08598
1320.19411	0.08519
1318.13452	0.08480
1316.07494	0.08470
1314.01535	0.08436
1311.95577	0.08405
1309.89618	0.08381
1307.83660	0.08331
1305.77701	0.08275
1303.71743	0.08233
1301.65784	0.08203
1299.59826	0.08179
1297.53867	0.08156
1295.47909	0.08142
1293.41950	0.08146
1291.35991	0.08162
1289.30033	0.08185
1287.24074	0.08223
1285.18116	0.08270
1283.12157	0.08308
1281.06199	0.08352
1279.00240	0.08410
1276.94282	0.08477
1274.88323	0.08553
1272.82365	0.08639
1270.76406	0.08738
1268.70448	0.08845
1266.64489	0.08948
1264.58531	0.09051
1262.52572	0.09150
1260.46614	0.09246
1258.40655	0.09357
1256.34697	0.09474
1254.28738	0.09597
1252.22780	0.09734
1250.16821	0.09887
1248.10863	0.10062
1246.04904	0.10260
1243.98946	0.10468
1241.92987	0.10674
1239.87029	0.10869
1237.81070	0.11042
1235.75111	0.11181
1233.69153	0.11276
1231.63194	0.11318
1229.57236	0.11312
1227.51277	0.11270
1225.45319	0.11203
1223.39360	0.11114
1221.33402	0.10999
1219.27443	0.10856
1217.21485	0.10678
1215.15526	0.10459
1213.09568	0.10197
1211.03609	0.09895
1208.97651	0.09568
1206.91692	0.09240
1204.85734	0.08918
1202.79775	0.08597
1200.73817	0.08279
1198.67858	0.07992
1196.61900	0.07756
1194.55941	0.07557
1192.49983	0.07371
1190.44024	0.07209
1188.38066	0.07096
1186.32107	0.07026
1184.26149	0.06985
1182.20190	0.06983
1180.14231	0.07026
1178.08273	0.07099
1176.02314	0.07200
1173.96356	0.07326
1171.90397	0.07435
1169.84439	0.07493
1167.78480	0.07497
1165.72522	0.07457
1163.66563	0.07385
1161.60605	0.07291
1159.54646	0.07184
1157.48688	0.07063
1155.42729	0.06921
1153.36771	0.06770
1151.30812	0.06630
1149.24854	0.06513
1147.18895	0.06415
1145.12937	0.06323
1143.06978	0.06231
1141.01020	0.06139
1138.95061	0.06062
1136.89103	0.06001
1134.83144	0.05937
1132.77186	0.05874
1130.71227	0.05825
1128.65268	0.05778
1126.59310	0.05726
1124.53351	0.05669
1122.47393	0.05605
1120.41434	0.05538
1118.35476	0.05479
1116.29517	0.05433
1114.23559	0.05398
1112.17600	0.05360
1110.11642	0.05328
1108.05683	0.05315
1105.99725	0.05307
1103.93766	0.05286
1101.87808	0.05247
1099.81849	0.05202
1097.75891	0.05158
1095.69932	0.05111
1093.63974	0.05073
1091.58015	0.05050
1089.52057	0.05032
1087.46098	0.05021
1085.40140	0.05023
1083.34181	0.05031
1081.28223	0.05035
1079.22264	0.05035
1077.16306	0.05036
1075.10347	0.05032
1073.04388	0.05017
1070.98430	0.05007
1068.92471	0.04998
1066.86513	0.04984
1064.80554	0.04985
1062.74596	0.05010
1060.68637	0.05045
1058.62679	0.05087
1056.56720	0.05133
1054.50762	0.05171
1052.44803	0.05180
1050.38845	0.05150
1048.32886	0.05101
1046.26928	0.05053
1044.20969	0.04994
1042.15011	0.04930
1040.09052	0.04894
1038.03094	0.04896
1035.97135	0.04925
1033.91177	0.04980
1031.85218	0.05047
1029.79260	0.05092
1027.73301	0.05103
1025.67343	0.05088
1023.61384	0.05052
1021.55425	0.05003
1019.49467	0.04954
1017.43508	0.04915
1015.37550	0.04890
1013.31591	0.04861
1011.25633	0.04808
1009.19674	0.04735
1007.13716	0.04662
1005.07757	0.04595
1003.01799	0.04514
1000.95840	0.04416
998.89882	0.04317
996.83923	0.04221
994.77965	0.04125
992.72006	0.04037
990.66048	0.03959
988.60089	0.03895
986.54131	0.03851
984.48172	0.03819
982.42214	0.03796
980.36255	0.03789
978.30297	0.03801
976.24338	0.03838
974.18380	0.03893
972.12421	0.03965
970.06463	0.04072
968.00504	0.04219
965.94545	0.04347
963.88587	0.04387
961.82628	0.04341
959.76670	0.04242
957.70711	0.04111
955.64753	0.03977
953.58794	0.03860
951.52836	0.03758
949.46877	0.03675
947.40919	0.03622
945.34960	0.03584
943.29002	0.03547
941.23043	0.03506
939.17085	0.03463
937.11126	0.03429
935.05168	0.03412
932.99209	0.03407
930.93251	0.03411
928.87292	0.03414
926.81334	0.03404
924.75375	0.03374
922.69417	0.03335
920.63458	0.03290
918.57500	0.03239
916.51541	0.03190
914.45582	0.03135
912.39624	0.03077
910.33665	0.03036
908.27707	0.03022
906.21748	0.03022
904.15790	0.03019
902.09831	0.03007
900.03873	0.02987
897.97914	0.02959
895.91956	0.02930
893.85997	0.02908
891.80039	0.02896
889.74080	0.02889
887.68122	0.02881
885.62163	0.02870
883.56205	0.02861
881.50246	0.02852
879.44288	0.02838
877.38329	0.02825
875.32371	0.02816
873.26412	0.02803
871.20454	0.02786
869.14495	0.02775
867.08537	0.02773
865.02578	0.02777
862.96620	0.02776
860.90661	0.02770
858.84702	0.02775
856.78744	0.02802
854.72785	0.02831
852.66827	0.02843
850.60868	0.02857
848.54910	0.02871
846.48951	0.02870
844.42993	0.02864
842.37034	0.02873
840.31076	0.02911
838.25117	0.02961
836.19159	0.02994
834.13200	0.03012
832.07242	0.03035
830.01283	0.03071
827.95325	0.03105
825.89366	0.03112
823.83408	0.03098
821.77449	0.03090
819.71491	0.03093
817.65532	0.03105
815.59574	0.03134
813.53615	0.03185
811.47657	0.03232
809.41698	0.03270
807.35740	0.03305
805.29781	0.03326
803.23822	0.03336
801.17864	0.03342
799.11905	0.03345
797.05947	0.03352
794.99988	0.03363
792.94030	0.03382
790.88071	0.03421
788.82113	0.03476
786.76154	0.03531
784.70196	0.03583
782.64237	0.03634
780.58279	0.03678
778.52320	0.03717
776.46362	0.03760
774.40403	0.03805
772.34445	0.03846
770.28486	0.03882
768.22528	0.03905
766.16569	0.03913
764.10611	0.03925
762.04652	0.03949
759.98694	0.03974
757.92735	0.03998
755.86777	0.04023
753.80818	0.04049
751.74859	0.04090
749.68901	0.04149
747.62942	0.04212
745.56984	0.04267
743.51025	0.04309
741.45067	0.04349
739.39108	0.04398
737.33150	0.04460
735.27191	0.04534
733.21233	0.04613
731.15274	0.04684
729.09316	0.04758
727.03357	0.04852
724.97399	0.04955
722.91440	0.05058
720.85482	0.05169
718.79523	0.05285
716.73565	0.05407
714.67606	0.05544
712.61648	0.05684
710.55689	0.05808
708.49731	0.05917
706.43772	0.06024
704.37814	0.06129
702.31855	0.06218
700.25897	0.06289
698.19938	0.06351
696.13979	0.06407
694.08021	0.06444
692.02062	0.06469
689.96104	0.06499
687.90145	0.06530
685.84187	0.06552
683.78228	0.06569
681.72270	0.06578
679.66311	0.06584
677.60353	0.06593
675.54394	0.06596
673.48436	0.06592
671.42477	0.06578
669.36519	0.06566
667.30560	0.06585
665.24602	0.06595
663.18643	0.06584
661.12685	0.06573
659.06726	0.06568
657.00768	0.06555
654.94809	0.06531
652.88851	0.06513
650.82892	0.06510
648.76934	0.06523
646.70975	0.06539
644.65016	0.06534
642.59058	0.06508
640.53099	0.06486
638.47141	0.06483
636.41182	0.06508
634.35224	0.06554
632.29265	0.06594
630.23307	0.06628
628.17348	0.06679
626.11390	0.06748
624.05431	0.06820
621.99473	0.06860
619.93514	0.06874
617.87556	0.06901
615.81597	0.06929
613.75639	0.06918
611.69680	0.06873
609.63722	0.06822
607.57763	0.06779
605.51805	0.06742
603.45846	0.06695
601.39888	0.06633
599.33929	0.06585
597.27971	0.06564
595.22012	0.06554
593.16054	0.06534
591.10095	0.06508
589.04136	0.06491
586.98178	0.06485
584.92219	0.06507
582.86261	0.06535
580.80302	0.06556
578.74344	0.06589
576.68385	0.06610
574.62427	0.06613
572.56468	0.06617
570.50510	0.06634
568.44551	0.06649
566.38593	0.06667
564.32634	0.06712
562.26676	0.06771
560.20717	0.06811
558.14759	0.06821
556.08800	0.06822
554.02842	0.06838
551.96883	0.06852
549.90925	0.06843
547.84966	0.06825
545.79008	0.06811
543.73049	0.06791
541.67091	0.06749
539.61132	0.06703
537.55173	0.06669
535.49215	0.06631
533.43256	0.06584
531.37298	0.06533
529.31339	0.06479
527.25381	0.06407
525.19422	0.06339
523.13464	0.06292
521.07505	0.06228
519.01547	0.06138
516.95588	0.06077
514.89630	0.06070
512.83671	0.06049
510.77713	0.05974
508.71754	0.05895
506.65796	0.05865
504.59837	0.05845
502.53879	0.05788
500.47920	0.05745
498.41962	0.05712
496.36003	0.05663
494.30045	0.05603
492.24086	0.05548
490.18128	0.05506
488.12169	0.05478
486.06211	0.05459
484.00252	0.05428
481.94293	0.05374
479.88335	0.05330
477.82376	0.05323
475.76418	0.05311
473.70459	0.05234
471.64501	0.05146
469.58542	0.05087
467.52584	0.05039
465.46625	0.05018
463.40667	0.05005
461.34708	0.04985
459.28750	0.04942
457.22791	0.04904
455.16833	0.04896
453.10874	0.04892
451.04916	0.04920
448.98957	0.04962
446.92999	0.04983
444.87040	0.04983
442.81082	0.04999
440.75123	0.05024
438.69165	0.04989
436.63206	0.04902
434.57248	0.04824
432.51289	0.04754
430.45330	0.04684
428.39372	0.04611
426.33413	0.04540
424.27455	0.04508
422.21496	0.04496
420.15538	0.04435
418.09579	0.04399
416.03621	0.04404
413.97662	0.04352
411.91704	0.04263
409.85745	0.04192
407.79787	0.04146
405.73828	0.04112
403.67870	0.04086
401.61911	0.04063
399.55953	0.04033
