3997.65486	0.10853
3995.59527	0.10843
3993.53569	0.10835
3991.47610	0.10838
3989.41652	0.10869
3987.35693	0.10911
3985.29735	0.10903
3983.23776	0.10841
3981.17817	0.10774
3979.11859	0.10742
3977.05900	0.10735
3974.99942	0.10699
3972.93983	0.10655
3970.88025	0.10670
3968.82066	0.10739
3966.76108	0.10798
3964.70149	0.10802
3962.64191	0.10760
3960.58232	0.10705
3958.52274	0.10673
3956.46315	0.10644
3954.40357	0.10588
3952.34398	0.10541
3950.28440	0.10501
3948.22481	0.10454
3946.16523	0.10469
3944.10564	0.10547
3942.04606	0.10594
3939.98647	0.10589
3937.92689	0.10571
3935.86730	0.10564
3933.80772	0.10578
3931.74813	0.10610
3929.68855	0.10628
3927.62896	0.10590
3925.56937	0.10486
3923.50979	0.10378
3921.45020	0.10320
3919.39062	0.10306
3917.33103	0.10310
3915.27145	0.10308
3913.21186	0.10291
3911.15228	0.10275
3909.09269	0.10276
3907.03311	0.10299
3904.97352	0.10353
3902.91394	0.10429
3900.85435	0.10474
3898.79477	0.10446
3896.73518	0.10354
3894.67560	0.10250
3892.61601	0.10188
3890.55643	0.10200
3888.49684	0.10217
3886.43726	0.10191
3884.37767	0.10174
3882.31809	0.10164
3880.25850	0.10131
3878.19892	0.10064
3876.13933	0.09979
3874.07974	0.09948
3872.02016	0.10010
3869.96057	0.10078
3867.90099	0.10067
3865.84140	0.10016
3863.78182	0.10017
3861.72223	0.10062
3859.66265	0.10069
3857.60306	0.10006
3855.54348	0.09920
3853.48389	0.09902
3851.42431	0.09941
3849.36472	0.09948
3847.30514	0.09935
3845.24555	0.09930
3843.18597	0.09906
3841.12638	0.09845
3839.06680	0.09804
3837.00721	0.09806
3834.94763	0.09788
3832.88804	0.09738
3830.82846	0.09712
3828.76887	0.09758
3826.70929	0.09842
3824.64970	0.09858
3822.59012	0.09798
3820.53053	0.09769
3818.47094	0.09774
3816.41136	0.09725
3814.35177	0.09620
3812.29219	0.09555
3810.23260	0.09568
3808.17302	0.09587
3806.11343	0.09562
3804.05385	0.09531
3801.99426	0.09543
3799.93468	0.09601
3797.87509	0.09629
3795.81551	0.09588
3793.75592	0.09538
3791.69634	0.09517
3789.63675	0.09498
3787.57717	0.09495
3785.51758	0.09535
3783.45800	0.09550
3781.39841	0.09470
3779.33883	0.09366
3777.27924	0.09330
3775.21966	0.09344
3773.16007	0.09364
3771.10049	0.09377
3769.04090	0.09382
3766.98132	0.09385
3764.92173	0.09386
3762.86214	0.09381
3760.80256	0.09388
3758.74297	0.09412
3756.68339	0.09410
3754.62380	0.09376
3752.56422	0.09349
3750.50463	0.09309
3748.44505	0.09220
3746.38546	0.09189
3744.32588	0.09251
3742.26629	0.09280
3740.20671	0.09201
3738.14712	0.09038
3736.08754	0.08890
3734.02795	0.08903
3731.96837	0.09008
3729.90878	0.09047
3727.84920	0.09031
3725.78961	0.09013
3723.73003	0.08995
3721.67044	0.09015
3719.61086	0.08993
3717.55127	0.08907
3715.49169	0.08839
3713.43210	0.08849
3711.37251	0.08928
3709.31293	0.08974
3707.25334	0.08937
3705.19376	0.08887
3703.13417	0.08862
3701.07459	0.08859
3699.01500	0.08840
3696.95542	0.08794
3694.89583	0.08744
3692.83625	0.08695
3690.77666	0.08685
3688.71708	0.08729
3686.65749	0.08743
3684.59791	0.08667
3682.53832	0.08552
3680.47874	0.08470
3678.41915	0.08461
3676.35957	0.08511
3674.29998	0.08555
3672.24040	0.08528
3670.18081	0.08495
3668.12123	0.08514
3666.06164	0.08550
3664.00206	0.08589
3661.94247	0.08647
3659.88289	0.08704
3657.82330	0.08732
3655.76371	0.08729
3653.70413	0.08680
3651.64454	0.08619
3649.58496	0.08666
3647.52537	0.08823
3645.46579	0.08904
3643.40620	0.08903
3641.34662	0.08946
3639.28703	0.09051
3637.22745	0.09121
3635.16786	0.09119
3633.10828	0.09129
3631.04869	0.09223
3628.98911	0.09345
3626.92952	0.09368
3624.86994	0.09290
3622.81035	0.09247
3620.75077	0.09308
3618.69118	0.09418
3616.63160	0.09474
3614.57201	0.09459
3612.51243	0.09457
3610.45284	0.09506
3608.39326	0.09582
3606.33367	0.09640
3604.27408	0.09663
3602.21450	0.09684
3600.15491	0.09711
3598.09533	0.09734
3596.03574	0.09790
3593.97616	0.09885
3591.91657	0.09932
3589.85699	0.09925
3587.79740	0.09994
3585.73782	0.10144
3583.67823	0.10248
3581.61865	0.10311
3579.55906	0.10395
3577.49948	0.10477
3575.43989	0.10516
3573.38031	0.10505
3571.32072	0.10488
3569.26114	0.10528
3567.20155	0.10653
3565.14197	0.10786
3563.08238	0.10851
3561.02280	0.10889
3558.96321	0.10937
3556.90363	0.10981
3554.84404	0.11028
3552.78446	0.11093
3550.72487	0.11180
3548.66528	0.11303
3546.60570	0.11440
3544.54611	0.11523
3542.48653	0.11566
3540.42694	0.11626
3538.36736	0.11701
3536.30777	0.11762
3534.24819	0.11776
3532.18860	0.11772
3530.12902	0.11826
3528.06943	0.11931
3526.00985	0.12008
3523.95026	0.12045
3521.89068	0.12091
3519.83109	0.12151
3517.77151	0.12203
3515.71192	0.12248
3513.65234	0.12283
3511.59275	0.12309
3509.53317	0.12340
3507.47358	0.12393
3505.41400	0.12479
3503.35441	0.12577
3501.29483	0.12640
3499.23524	0.12686
3497.17565	0.12750
3495.11607	0.12809
3493.05648	0.12838
3490.99690	0.12854
3488.93731	0.12884
3486.87773	0.12910
3484.81814	0.12911
3482.75856	0.12943
3480.69897	0.13059
3478.63939	0.13197
3476.57980	0.13274
3474.52022	0.13290
3472.46063	0.13296
3470.40105	0.13332
3468.34146	0.13409
3466.28188	0.13510
3464.22229	0.13573
3462.16271	0.13571
3460.10312	0.13572
3458.04354	0.13633
3455.98395	0.13705
3453.92437	0.13747
3451.86478	0.13797
3449.80520	0.13875
3447.74561	0.13949
3445.68603	0.14020
3443.62644	0.14094
3441.56685	0.14138
3439.50727	0.14150
3437.44768	0.14191
3435.38810	0.14284
3433.32851	0.14388
3431.26893	0.14471
3429.20934	0.14542
3427.14976	0.14606
3425.09017	0.14637
3423.03059	0.14658
3420.97100	0.14725
3418.91142	0.14827
3416.85183	0.14905
3414.79225	0.14959
3412.73266	0.15006
3410.67308	0.14999
3408.61349	0.14948
3406.55391	0.14999
3404.49432	0.15171
3402.43474	0.15283
3400.37515	0.15309
3398.31557	0.15365
3396.25598	0.15453
3394.19640	0.15531
3392.13681	0.15611
3390.07723	0.15685
3388.01764	0.15729
3385.95805	0.15788
3383.89847	0.15910
3381.83888	0.16041
3379.77930	0.16118
3377.71971	0.16161
3375.66013	0.16214
3373.60054	0.16294
3371.54096	0.16408
3369.48137	0.16545
3367.42179	0.16664
3365.36220	0.16731
3363.30262	0.16793
3361.24303	0.16916
3359.18345	0.17105
3357.12386	0.17319
3355.06428	0.17488
3353.00469	0.17585
3350.94511	0.17718
3348.88552	0.17935
3346.82594	0.18147
3344.76635	0.18347
3342.70677	0.18594
3340.64718	0.18854
3338.58760	0.19083
3336.52801	0.19291
3334.46842	0.19480
3332.40884	0.19685
3330.34925	0.19969
3328.28967	0.20310
3326.23008	0.20628
3324.17050	0.20920
3322.11091	0.21238
3320.05133	0.21587
3317.99174	0.21925
3315.93216	0.22211
3313.87257	0.22486
3311.81299	0.22820
3309.75340	0.23180
3307.69382	0.23536
3305.63423	0.23921
3303.57465	0.24320
3301.51506	0.24697
3299.45548	0.25049
3297.39589	0.25419
3295.33631	0.25815
3293.27672	0.26209
3291.21714	0.26595
3289.15755	0.26934
3287.09797	0.27206
3285.03838	0.27459
3282.97880	0.27722
3280.91921	0.27985
3278.85962	0.28177
3276.80004	0.28263
3274.74045	0.28297
3272.68087	0.28316
3270.62128	0.28318
3268.56170	0.28273
3266.50211	0.28129
3264.44253	0.27887
3262.38294	0.27603
3260.32336	0.27311
3258.26377	0.27041
3256.20419	0.26799
3254.14460	0.26536
3252.08502	0.26225
3250.02543	0.25898
3247.96585	0.25629
3245.90626	0.25413
3243.84668	0.25155
3241.78709	0.24855
3239.72751	0.24593
3237.66792	0.24396
3235.60834	0.24226
3233.54875	0.24048
3231.48917	0.23849
3229.42958	0.23635
3227.36999	0.23433
3225.31041	0.23251
3223.25082	0.23088
3221.19124	0.22965
3219.13165	0.22834
3217.07207	0.22657
3215.01248	0.22482
3212.95290	0.22350
3210.89331	0.22252
3208.83373	0.22124
3206.77414	0.21928
3204.71456	0.21743
3202.65497	0.21608
3200.59539	0.21474
3198.53580	0.21326
3196.47622	0.21178
3194.41663	0.21023
3192.35705	0.20855
3190.29746	0.20671
3188.23788	0.20504
3186.17829	0.20365
3184.11871	0.20218
3182.05912	0.20050
3179.99954	0.19862
3177.93995	0.19662
3175.88037	0.19453
3173.82078	0.19242
3171.76119	0.19055
3169.70161	0.18881
3167.64202	0.18705
3165.58244	0.18521
3163.52285	0.18324
3161.46327	0.18137
3159.40368	0.17975
3157.34410	0.17826
3155.28451	0.17659
3153.22493	0.17461
3151.16534	0.17290
3149.10576	0.17161
3147.04617	0.17008
3144.98659	0.16810
3142.92700	0.16623
3140.86742	0.16496
3138.80783	0.16395
3136.74825	0.16279
3134.68866	0.16146
3132.62908	0.16019
3130.56949	0.15926
3128.50991	0.15857
3126.45032	0.15781
3124.39074	0.15713
3122.33115	0.15667
3120.27156	0.15623
3118.21198	0.15579
3116.15239	0.15538
3114.09281	0.15490
3112.03322	0.15436
3109.97364	0.15402
3107.91405	0.15406
3105.85447	0.15425
3103.79488	0.15426
3101.73530	0.15424
3099.67571	0.15460
3097.61613	0.15502
3095.55654	0.15507
3093.49696	0.15525
3091.43737	0.15583
3089.37779	0.15639
3087.31820	0.15672
3085.25862	0.15687
3083.19903	0.15701
3081.13945	0.15723
3079.07986	0.15746
3077.02028	0.15760
3074.96069	0.15777
3072.90111	0.15803
3070.84152	0.15818
3068.78194	0.15814
3066.72235	0.15792
3064.66276	0.15751
3062.60318	0.15689
3060.54359	0.15618
3058.48401	0.15558
3056.42442	0.15483
3054.36484	0.15388
3052.30525	0.15313
3050.24567	0.15236
3048.18608	0.15135
3046.12650	0.15029
3044.06691	0.14931
3042.00733	0.14847
3039.94774	0.14746
3037.88816	0.14619
3035.82857	0.14516
3033.76899	0.14423
3031.70940	0.14290
3029.64982	0.14138
3027.59023	0.14009
3025.53065	0.13908
3023.47106	0.13809
3021.41148	0.13692
3019.35189	0.13589
3017.29231	0.13532
3015.23272	0.13483
3013.17313	0.13382
3011.11355	0.13241
3009.05396	0.13126
3006.99438	0.13062
3004.93479	0.13039
3002.87521	0.13017
3000.81562	0.12979
2998.75604	0.12972
2996.69645	0.13019
2994.63687	0.13077
2992.57728	0.13123
2990.51770	0.13172
2988.45811	0.13227
2986.39853	0.13286
2984.33894	0.13350
2982.27936	0.13414
2980.21977	0.13459
2978.16019	0.13486
2976.10060	0.13539
2974.04102	0.13623
2971.98143	0.13704
2969.92185	0.13739
2967.86226	0.13719
2965.80268	0.13707
2963.74309	0.13726
2961.68351	0.13739
2959.62392	0.13731
2957.56433	0.13695
2955.50475	0.13637
2953.44516	0.13589
2951.38558	0.13552
2949.32599	0.13525
2947.26641	0.13541
2945.20682	0.13597
2943.14724	0.13647
2941.08765	0.13704
2939.02807	0.13807
2936.96848	0.13949
2934.90890	0.14096
2932.84931	0.14227
2930.78973	0.14338
2928.73014	0.14419
2926.67056	0.14464
2924.61097	0.14501
2922.55139	0.14555
2920.49180	0.14618
2918.43222	0.14630
2916.37263	0.14506
2914.31305	0.14221
2912.25346	0.13850
2910.19388	0.13514
2908.13429	0.13265
2906.07471	0.13076
2904.01512	0.12916
2901.95553	0.12770
2899.89595	0.12622
2897.83636	0.12490
2895.77678	0.12401
2893.71719	0.12322
2891.65761	0.12233
2889.59802	0.12140
2887.53844	0.12049
2885.47885	0.11985
2883.41927	0.11962
2881.35968	0.11973
2879.30010	0.12012
2877.24051	0.12056
2875.18093	0.12065
2873.12134	0.12035
2871.06176	0.12007
2869.00217	0.11989
2866.94259	0.11944
2864.88300	0.11852
2862.82342	0.11757
2860.76383	0.11719
2858.70425	0.11732
2856.64466	0.11766
2854.58508	0.11838
2852.52549	0.11951
2850.46590	0.12011
2848.40632	0.11896
2846.34673	0.11629
2844.28715	0.11365
2842.22756	0.11187
2840.16798	0.11049
2838.10839	0.10906
2836.04881	0.10786
2833.98922	0.10712
2831.92964	0.10661
2829.87005	0.10612
2827.81047	0.10560
2825.75088	0.10516
2823.69130	0.10465
2821.63171	0.10408
2819.57213	0.10379
2817.51254	0.10385
2815.45296	0.10398
2813.39337	0.10388
2811.33379	0.10333
2809.27420	0.10267
2807.21462	0.10240
2805.15503	0.10230
2803.09545	0.10207
2801.03586	0.10183
2798.97628	0.10156
2796.91669	0.10120
2794.85710	0.10089
2792.79752	0.10071
2790.73793	0.10049
2788.67835	0.10008
2786.61876	0.09968
2784.55918	0.09939
2782.49959	0.09902
2780.44001	0.09860
2778.38042	0.09842
2776.32084	0.09839
2774.26125	0.09810
2772.20167	0.09750
2770.14208	0.09699
2768.08250	0.09690
2766.02291	0.09694
2763.96333	0.09679
2761.90374	0.09667
2759.84416	0.09645
2757.78457	0.09572
2755.72499	0.09505
2753.66540	0.09490
2751.60582	0.09489
2749.54623	0.09469
2747.48665	0.09419
2745.42706	0.09356
2743.36747	0.09324
2741.30789	0.09318
2739.24830	0.09297
2737.18872	0.09271
2735.12913	0.09255
2733.06955	0.09230
2731.00996	0.09184
2728.95038	0.09135
2726.89079	0.09104
2724.83121	0.09077
2722.77162	0.09054
2720.71204	0.09038
2718.65245	0.09010
2716.59287	0.08983
2714.53328	0.08965
2712.47370	0.08936
2710.41411	0.08899
2708.35453	0.08870
2706.29494	0.08846
2704.23536	0.08814
2702.17577	0.08764
2700.11619	0.08711
2698.05660	0.08688
2695.99702	0.08704
2693.93743	0.08715
2691.87785	0.08693
2689.81826	0.08665
2687.75867	0.08652
2685.69909	0.08639
2683.63950	0.08615
2681.57992	0.08592
2679.52033	0.08577
2677.46075	0.08548
2675.40116	0.08510
2673.34158	0.08477
2671.28199	0.08452
2669.22241	0.08426
2667.16282	0.08398
2665.10324	0.08366
2663.04365	0.08351
2660.98407	0.08372
2658.92448	0.08397
2656.86490	0.08388
2654.80531	0.08351
2652.74573	0.08314
2650.68614	0.08293
2648.62656	0.08288
2646.56697	0.08280
2644.50739	0.08254
2642.44780	0.08230
2640.38822	0.08206
2638.32863	0.08165
2636.26904	0.08151
2634.20946	0.08162
2632.14987	0.08140
2630.09029	0.08092
2628.03070	0.08051
2625.97112	0.08007
2623.91153	0.07950
2621.85195	0.07907
2619.79236	0.07879
2617.73278	0.07848
2615.67319	0.07829
2613.61361	0.07812
2611.55402	0.07790
2609.49444	0.07774
2607.43485	0.07748
2605.37527	0.07691
2603.31568	0.07640
2601.25610	0.07640
2599.19651	0.07643
2597.13693	0.07603
2595.07734	0.07568
2593.01776	0.07555
2590.95817	0.07542
2588.89859	0.07549
2586.83900	0.07553
2584.77942	0.07495
2582.71983	0.07389
2580.66024	0.07313
2578.60066	0.07322
2576.54107	0.07345
2574.48149	0.07329
2572.42190	0.07316
2570.36232	0.07303
2568.30273	0.07246
2566.24315	0.07186
2564.18356	0.07173
2562.12398	0.07186
2560.06439	0.07183
2558.00481	0.07136
2555.94522	0.07107
2553.88564	0.07157
2551.82605	0.07221
2549.76647	0.07234
2547.70688	0.07199
2545.64730	0.07127
2543.58771	0.07048
2541.52813	0.07008
2539.46854	0.06998
2537.40896	0.06989
2535.34937	0.06993
2533.28979	0.06988
2531.23020	0.06938
2529.17062	0.06887
2527.11103	0.06881
2525.05144	0.06895
2522.99186	0.06887
2520.93227	0.06861
2518.87269	0.06838
2516.81310	0.06811
2514.75352	0.06768
2512.69393	0.06743
2510.63435	0.06738
2508.57476	0.06699
2506.51518	0.06661
2504.45559	0.06685
2502.39601	0.06705
2500.33642	0.06672
2498.27684	0.06635
2496.21725	0.06624
2494.15767	0.06641
2492.09808	0.06665
2490.03850	0.06649
2487.97891	0.06595
2485.91933	0.06558
2483.85974	0.06564
2481.80016	0.06582
2479.74057	0.06568
2477.68099	0.06521
2475.62140	0.06484
2473.56181	0.06471
2471.50223	0.06484
2469.44264	0.06529
2467.38306	0.06541
2465.32347	0.06484
2463.26389	0.06451
2461.20430	0.06477
2459.14472	0.06486
2457.08513	0.06439
2455.02555	0.06389
2452.96596	0.06395
2450.90638	0.06430
2448.84679	0.06424
2446.78721	0.06380
2444.72762	0.06348
2442.66804	0.06351
2440.60845	0.06370
2438.54887	0.06355
2436.48928	0.06296
2434.42970	0.06238
2432.37011	0.06214
2430.31053	0.06211
2428.25094	0.06234
2426.19136	0.06269
2424.13177	0.06287
2422.07219	0.06276
2420.01260	0.06224
2417.95301	0.06165
2415.89343	0.06138
2413.83384	0.06163
2411.77426	0.06222
2409.71467	0.06229
2407.65509	0.06172
2405.59550	0.06138
2403.53592	0.06146
2401.47633	0.06148
2399.41675	0.06136
2397.35716	0.06094
2395.29758	0.06056
2393.23799	0.06067
2391.17841	0.06101
2389.11882	0.06099
2387.05924	0.06062
2384.99965	0.06028
2382.94007	0.06024
2380.88048	0.06069
2378.82090	0.06142
2376.76131	0.06181
2374.70173	0.06190
2372.64214	0.06156
2370.58256	0.06176
2368.52297	0.06290
2366.46338	0.06337
2364.40380	0.06375
2362.34421	0.06408
2360.28463	0.06535
2358.22504	0.06422
2356.16546	0.06449
2354.10587	0.06321
2352.04629	0.06186
2349.98670	0.06311
2347.92712	0.06429
2345.86753	0.06317
2343.80795	0.05879
2341.74836	0.05973
2339.68878	0.06698
2337.62919	0.06877
2335.56961	0.06222
2333.51002	0.05484
2331.45044	0.05314
2329.39085	0.05684
2327.33127	0.06240
2325.27168	0.06751
2323.21210	0.06921
2321.15251	0.06852
2319.09293	0.06638
2317.03334	0.06466
2314.97376	0.06295
2312.91417	0.06213
2310.85458	0.06110
2308.79500	0.06002
2306.73541	0.05940
2304.67583	0.05876
2302.61624	0.05848
2300.55666	0.05838
2298.49707	0.05804
2296.43749	0.05737
2294.37790	0.05692
2292.31832	0.05646
2290.25873	0.05609
2288.19915	0.05600
2286.13956	0.05610
2284.07998	0.05534
2282.02039	0.05416
2279.96081	0.05379
2277.90122	0.05388
2275.84164	0.05364
2273.78205	0.05352
2271.72247	0.05351
2269.66288	0.05280
2267.60330	0.05174
2265.54371	0.05130
2263.48413	0.05154
2261.42454	0.05153
2259.36495	0.05093
2257.30537	0.05004
2255.24578	0.04897
2253.18620	0.04807
2251.12661	0.04777
2249.06703	0.04790
2247.00744	0.04845
2244.94786	0.04917
2242.88827	0.04923
2240.82869	0.04848
2238.76910	0.04805
2236.70952	0.04823
2234.64993	0.04806
2232.59035	0.04759
2230.53076	0.04750
2228.47118	0.04793
2226.41159	0.04849
2224.35201	0.04844
2222.29242	0.04757
2220.23284	0.04693
2218.17325	0.04676
2216.11367	0.04644
2214.05408	0.04583
2211.99450	0.04504
2209.93491	0.04448
2207.87533	0.04422
2205.81574	0.04407
2203.75615	0.04381
2201.69657	0.04353
2199.63698	0.04354
2197.57740	0.04380
2195.51781	0.04398
2193.45823	0.04396
2191.39864	0.04375
2189.33906	0.04296
2187.27947	0.04157
2185.21989	0.04096
2183.16030	0.04171
2181.10072	0.04209
2179.04113	0.04182
2176.98155	0.04129
2174.92196	0.04021
2172.86238	0.03911
2170.80279	0.03878
2168.74321	0.03955
2166.68362	0.04024
2164.62404	0.03995
2162.56445	0.03897
2160.50487	0.03680
2158.44528	0.03501
2156.38570	0.03540
2154.32611	0.03663
2152.26652	0.03749
2150.20694	0.03757
2148.14735	0.03790
2146.08777	0.03918
2144.02818	0.04016
2141.96860	0.04036
2139.90901	0.04031
2137.84943	0.04039
2135.78984	0.04045
2133.73026	0.04037
2131.67067	0.04023
2129.61109	0.04042
2127.55150	0.04134
2125.49192	0.04233
2123.43233	0.04303
2121.37275	0.04371
2119.31316	0.04373
2117.25358	0.04309
2115.19399	0.04288
2113.13441	0.04335
2111.07482	0.04374
2109.01524	0.04348
2106.95565	0.04299
2104.89607	0.04281
2102.83648	0.04280
2100.77690	0.04261
2098.71731	0.04208
2096.65772	0.04146
2094.59814	0.04120
2092.53855	0.04100
2090.47897	0.04052
2088.41938	0.04048
2086.35980	0.04110
2084.30021	0.04160
2082.24063	0.04146
2080.18104	0.04103
2078.12146	0.04065
2076.06187	0.04021
2074.00229	0.03966
2071.94270	0.03914
2069.88312	0.03902
2067.82353	0.03928
2065.76395	0.03890
2063.70436	0.03812
2061.64478	0.03836
2059.58519	0.03911
2057.52561	0.03915
2055.46602	0.03876
2053.40644	0.03910
2051.34685	0.03980
2049.28727	0.03933
2047.22768	0.03782
2045.16810	0.03683
2043.10851	0.03661
2041.04892	0.03636
2038.98934	0.03560
2036.92975	0.03417
2034.87017	0.03273
2032.81058	0.03214
2030.75100	0.03285
2028.69141	0.03432
2026.63183	0.03456
2024.57224	0.03281
2022.51266	0.03087
2020.45307	0.03024
2018.39349	0.03087
2016.33390	0.03167
2014.27432	0.03194
2012.21473	0.03226
2010.15515	0.03280
2008.09556	0.03288
2006.03598	0.03232
2003.97639	0.03178
2001.91681	0.03148
1999.85722	0.03141
1997.79764	0.03193
1995.73805	0.03239
1993.67847	0.03206
1991.61888	0.03183
1989.55929	0.03194
1987.49971	0.03181
1985.44012	0.03189
1983.38054	0.03249
1981.32095	0.03271
1979.26137	0.03158
1977.20178	0.03025
1975.14220	0.03010
1973.08261	0.03001
1971.02303	0.02967
1968.96344	0.02975
1966.90386	0.02991
1964.84427	0.02977
1962.78469	0.02968
1960.72510	0.02990
1958.66552	0.03020
1956.60593	0.03052
1954.54635	0.03067
1952.48676	0.03051
1950.42718	0.03046
1948.36759	0.03077
1946.30801	0.03138
1944.24842	0.03190
1942.18884	0.03222
1940.12925	0.03246
1938.06967	0.03233
1936.01008	0.03190
1933.95049	0.03160
1931.89091	0.03177
1929.83132	0.03224
1927.77174	0.03255
1925.71215	0.03248
1923.65257	0.03211
1921.59298	0.03169
1919.53340	0.03144
1917.47381	0.03117
1915.41423	0.03062
1913.35464	0.03039
1911.29506	0.03078
1909.23547	0.03107
1907.17589	0.03087
1905.11630	0.03067
1903.05672	0.03080
1900.99713	0.03097
1898.93755	0.03088
1896.87796	0.03084
1894.81838	0.03103
1892.75879	0.03103
1890.69921	0.03078
1888.63962	0.03058
1886.58004	0.03033
1884.52045	0.02988
1882.46086	0.02954
1880.40128	0.02960
1878.34169	0.02976
1876.28211	0.02963
1874.22252	0.02934
1872.16294	0.02920
1870.10335	0.02936
1868.04377	0.02975
1865.98418	0.03001
1863.92460	0.02985
1861.86501	0.02938
1859.80543	0.02892
1857.74584	0.02866
1855.68626	0.02857
1853.62667	0.02856
1851.56709	0.02861
1849.50750	0.02873
1847.44792	0.02871
1845.38833	0.02839
1843.32875	0.02796
1841.26916	0.02769
1839.20958	0.02751
1837.14999	0.02733
1835.09041	0.02720
1833.03082	0.02715
1830.97124	0.02711
1828.91165	0.02702
1826.85206	0.02690
1824.79248	0.02674
1822.73289	0.02658
1820.67331	0.02645
1818.61372	0.02643
1816.55414	0.02651
1814.49455	0.02647
1812.43497	0.02629
1810.37538	0.02616
1808.31580	0.02617
1806.25621	0.02623
1804.19663	0.02621
1802.13704	0.02612
1800.07746	0.02603
1798.01787	0.02590
1795.95829	0.02581
1793.89870	0.02575
1791.83912	0.02561
1789.77953	0.02546
1787.71995	0.02546
1785.66036	0.02553
1783.60078	0.02543
1781.54119	0.02512
1779.48161	0.02480
1777.42202	0.02462
1775.36243	0.02450
1773.30285	0.02444
1771.24326	0.02449
1769.18368	0.02460
1767.12409	0.02459
1765.06451	0.02447
1763.00492	0.02431
1760.94534	0.02414
1758.88575	0.02408
1756.82617	0.02415
1754.76658	0.02416
1752.70700	0.02404
1750.64741	0.02408
1748.58783	0.02436
1746.52824	0.02456
1744.46866	0.02454
1742.40907	0.02445
1740.34949	0.02439
1738.28990	0.02437
1736.23032	0.02440
1734.17073	0.02457
1732.11115	0.02496
1730.05156	0.02532
1727.99198	0.02562
1725.93239	0.02588
1723.87281	0.02616
1721.81322	0.02642
1719.75363	0.02681
1717.69405	0.02780
1715.63446	0.02964
1713.57488	0.03202
1711.51529	0.03474
1709.45571	0.03814
1707.39612	0.04307
1705.33654	0.04984
1703.27695	0.05727
1701.21737	0.06573
1699.15778	0.07528
1697.09820	0.08289
1695.03861	0.08845
1692.97903	0.09270
1690.91944	0.09634
1688.85986	0.10021
1686.80027	0.10465
1684.74069	0.11108
1682.68110	0.11890
1680.62152	0.12504
1678.56193	0.13012
1676.50235	0.13603
1674.44276	0.14306
1672.38318	0.15004
1670.32359	0.15751
1668.26401	0.16555
1666.20442	0.17206
1664.14483	0.17815
1662.08525	0.18555
1660.02566	0.19265
1657.96608	0.19792
1655.90649	0.20276
1653.84691	0.21033
1651.78732	0.21944
1649.72774	0.22483
1647.66815	0.22953
1645.60857	0.23600
1643.54898	0.24128
1641.48940	0.24487
1639.42981	0.24820
1637.37023	0.25285
1635.31064	0.25944
1633.25106	0.26482
1631.19147	0.26767
1629.13189	0.26992
1627.07230	0.27219
1625.01272	0.27367
1622.95313	0.27385
1620.89355	0.27250
1618.83396	0.26996
1616.77438	0.26698
1614.71479	0.26396
1612.65520	0.26063
1610.59562	0.25650
1608.53603	0.25131
1606.47645	0.24513
1604.41686	0.23797
1602.35728	0.22966
1600.29769	0.22034
1598.23811	0.21031
1596.17852	0.19967
1594.11894	0.18872
1592.05935	0.17810
1589.99977	0.16822
1587.94018	0.15939
1585.88060	0.15187
1583.82101	0.14577
1581.76143	0.14107
1579.70184	0.13767
1577.64226	0.13541
1575.58267	0.13442
1573.52309	0.13448
1571.46350	0.13538
1569.40392	0.13769
1567.34433	0.14110
1565.28475	0.14472
1563.22516	0.14800
1561.16558	0.15161
1559.10599	0.15821
1557.04640	0.16656
1554.98682	0.17246
1552.92723	0.17720
1550.86765	0.18218
1548.80806	0.18717
1546.74848	0.19151
1544.68889	0.19556
1542.62931	0.20034
1540.56972	0.20646
1538.51014	0.21231
1536.45055	0.21567
1534.39097	0.21860
1532.33138	0.22249
1530.27180	0.22582
1528.21221	0.22862
1526.15263	0.23178
1524.09304	0.23522
1522.03346	0.23949
1519.97387	0.24450
1517.91429	0.24903
1515.85470	0.25252
1513.79512	0.25390
1511.73553	0.25301
1509.67595	0.25072
1507.61636	0.24686
1505.55677	0.24136
1503.49719	0.23559
1501.43760	0.22957
1499.37802	0.22238
1497.31843	0.21366
1495.25885	0.20450
1493.19926	0.19612
1491.13968	0.18753
1489.08009	0.17793
1487.02051	0.16904
1484.96092	0.16184
1482.90134	0.15568
1480.84175	0.15008
1478.78217	0.14516
1476.72258	0.14085
1474.66300	0.13692
1472.60341	0.13352
1470.54383	0.13094
1468.48424	0.12910
1466.42466	0.12776
1464.36507	0.12702
1462.30549	0.12684
1460.24590	0.12745
1458.18632	0.13023
1456.12673	0.13531
1454.06715	0.13954
1452.00756	0.14226
1449.94797	0.14464
1447.88839	0.14696
1445.82880	0.14846
1443.76922	0.14840
1441.70963	0.14685
1439.65005	0.14428
1437.59046	0.14097
1435.53088	0.13736
1433.47129	0.13408
1431.41171	0.13107
1429.35212	0.12837
1427.29254	0.12644
1425.23295	0.12542
1423.17337	0.12521
1421.11378	0.12570
1419.05420	0.12684
1416.99461	0.12810
1414.93503	0.12882
1412.87544	0.12901
1410.81586	0.12876
1408.75627	0.12798
1406.69669	0.12678
1404.63710	0.12524
1402.57752	0.12344
1400.51793	0.12153
1398.45834	0.11971
1396.39876	0.11828
1394.33917	0.11735
1392.27959	0.11675
1390.22000	0.11636
1388.16042	0.11628
1386.10083	0.11632
1384.04125	0.11608
1381.98166	0.11553
1379.92208	0.11503
1377.86249	0.11483
1375.80291	0.11510
1373.74332	0.11572
1371.68374	0.11604
1369.62415	0.11551
1367.56457	0.11418
1365.50498	0.11238
1363.44540	0.11036
1361.38581	0.10849
1359.32623	0.10700
1357.26664	0.10573
1355.20706	0.10461
1353.14747	0.10370
1351.08789	0.10302
1349.02830	0.10256
1346.96872	0.10233
1344.90913	0.10228
1342.84954	0.10230
1340.78996	0.10236
1338.73037	0.10248
1336.67079	0.10244
1334.61120	0.10203
1332.55162	0.10125
1330.49203	0.10021
1328.43245	0.09906
1326.37286	0.09792
1324.31328	0.09682
1322.25369	0.09582
1320.19411	0.09506
1318.13452	0.09454
1316.07494	0.09417
1314.01535	0.09390
1311.95577	0.09365
1309.89618	0.09327
1307.83660	0.09276
1305.77701	0.09223
1303.71743	0.09182
1301.65784	0.09157
1299.59826	0.09137
1297.53867	0.09117
1295.47909	0.09109
1293.41950	0.09117
1291.35991	0.09142
1289.30033	0.09184
1287.24074	0.09232
1285.18116	0.09273
1283.12157	0.09314
1281.06199	0.09369
1279.00240	0.09433
1276.94282	0.09505
1274.88323	0.09593
1272.82365	0.09705
1270.76406	0.09841
1268.70448	0.09978
1266.64489	0.10100
1264.58531	0.10215
1262.52572	0.10328
1260.46614	0.10443
1258.40655	0.10558
1256.34697	0.10670
1254.28738	0.10794
1252.22780	0.10956
1250.16821	0.11154
1248.10863	0.11365
1246.04904	0.11582
1243.98946	0.11816
1241.92987	0.12059
1239.87029	0.12279
1237.81070	0.12466
1235.75111	0.12619
1233.69153	0.12724
1231.63194	0.12772
1229.57236	0.12766
1227.51277	0.12718
1225.45319	0.12637
1223.39360	0.12521
1221.33402	0.12368
1219.27443	0.12174
1217.21485	0.11935
1215.15526	0.11653
1213.09568	0.11329
1211.03609	0.10981
1208.97651	0.10620
1206.91692	0.10240
1204.85734	0.09846
1202.79775	0.09460
1200.73817	0.09103
1198.67858	0.08779
1196.61900	0.08493
1194.55941	0.08260
1192.49983	0.08078
1190.44024	0.07924
1188.38066	0.07796
1186.32107	0.07707
1184.26149	0.07658
1182.20190	0.07648
1180.14231	0.07688
1178.08273	0.07783
1176.02314	0.07922
1173.96356	0.08069
1171.90397	0.08173
1169.84439	0.08214
1167.78480	0.08215
1165.72522	0.08187
1163.66563	0.08119
1161.60605	0.08007
1159.54646	0.07865
1157.48688	0.07702
1155.42729	0.07531
1153.36771	0.07369
1151.30812	0.07221
1149.24854	0.07083
1147.18895	0.06963
1145.12937	0.06867
1143.06978	0.06788
1141.01020	0.06715
1138.95061	0.06645
1136.89103	0.06572
1134.83144	0.06498
1132.77186	0.06426
1130.71227	0.06349
1128.65268	0.06272
1126.59310	0.06196
1124.53351	0.06127
1122.47393	0.06071
1120.41434	0.06015
1118.35476	0.05957
1116.29517	0.05910
1114.23559	0.05870
1112.17600	0.05824
1110.11642	0.05784
1108.05683	0.05767
1105.99725	0.05761
1103.93766	0.05737
1101.87808	0.05696
1099.81849	0.05655
1097.75891	0.05613
1095.69932	0.05566
1093.63974	0.05515
1091.58015	0.05480
1089.52057	0.05474
1087.46098	0.05485
1085.40140	0.05496
1083.34181	0.05502
1081.28223	0.05511
1079.22264	0.05520
1077.16306	0.05516
1075.10347	0.05495
1073.04388	0.05474
1070.98430	0.05457
1068.92471	0.05441
1066.86513	0.05428
1064.80554	0.05428
1062.74596	0.05452
1060.68637	0.05498
1058.62679	0.05550
1056.56720	0.05597
1054.50762	0.05636
1052.44803	0.05649
1050.38845	0.05626
1048.32886	0.05571
1046.26928	0.05495
1044.20969	0.05423
1042.15011	0.05371
1040.09052	0.05338
1038.03094	0.05330
1035.97135	0.05365
1033.91177	0.05437
1031.85218	0.05513
1029.79260	0.05563
1027.73301	0.05580
1025.67343	0.05568
1023.61384	0.05523
1021.55425	0.05458
1019.49467	0.05392
1017.43508	0.05334
1015.37550	0.05292
1013.31591	0.05253
1011.25633	0.05192
1009.19674	0.05104
1007.13716	0.05015
1005.07757	0.04934
1003.01799	0.04839
1000.95840	0.04730
998.89882	0.04618
996.83923	0.04502
994.77965	0.04390
992.72006	0.04294
990.66048	0.04214
988.60089	0.04148
986.54131	0.04093
984.48172	0.04049
982.42214	0.04034
980.36255	0.04046
978.30297	0.04059
976.24338	0.04082
974.18380	0.04146
972.12421	0.04251
970.06463	0.04388
968.00504	0.04538
965.94545	0.04650
963.88587	0.04694
961.82628	0.04658
959.76670	0.04554
957.70711	0.04407
955.64753	0.04260
953.58794	0.04143
951.52836	0.04050
949.46877	0.03966
947.40919	0.03894
945.34960	0.03836
943.29002	0.03793
941.23043	0.03759
939.17085	0.03731
937.11126	0.03713
935.05168	0.03706
932.99209	0.03698
930.93251	0.03689
928.87292	0.03686
926.81334	0.03678
924.75375	0.03647
922.69417	0.03595
920.63458	0.03537
918.57500	0.03486
916.51541	0.03434
914.45582	0.03370
912.39624	0.03312
910.33665	0.03275
908.27707	0.03256
906.21748	0.03242
904.15790	0.03234
902.09831	0.03222
900.03873	0.03204
897.97914	0.03181
895.91956	0.03156
893.85997	0.03140
891.80039	0.03129
889.74080	0.03115
887.68122	0.03096
885.62163	0.03073
883.56205	0.03054
881.50246	0.03048
879.44288	0.03053
877.38329	0.03059
875.32371	0.03064
873.26412	0.03058
871.20454	0.03034
869.14495	0.03012
867.08537	0.03010
865.02578	0.03009
862.96620	0.03004
860.90661	0.03015
858.84702	0.03049
856.78744	0.03092
854.72785	0.03120
852.66827	0.03129
850.60868	0.03131
848.54910	0.03125
846.48951	0.03117
844.42993	0.03119
842.37034	0.03135
840.31076	0.03168
838.25117	0.03221
836.19159	0.03276
834.13200	0.03319
832.07242	0.03360
830.01283	0.03384
827.95325	0.03385
825.89366	0.03381
823.83408	0.03377
821.77449	0.03386
819.71491	0.03411
817.65532	0.03445
815.59574	0.03498
813.53615	0.03558
811.47657	0.03601
809.41698	0.03633
807.35740	0.03665
805.29781	0.03690
803.23822	0.03689
801.17864	0.03666
799.11905	0.03663
797.05947	0.03698
794.99988	0.03744
792.94030	0.03791
790.88071	0.03847
788.82113	0.03908
786.76154	0.03964
784.70196	0.04018
782.64237	0.04077
780.58279	0.04134
778.52320	0.04176
776.46362	0.04214
774.40403	0.04260
772.34445	0.04307
770.28486	0.04342
768.22528	0.04366
766.16569	0.04381
764.10611	0.04396
762.04652	0.04425
759.98694	0.04461
757.92735	0.04495
755.86777	0.04532
753.80818	0.04572
751.74859	0.04614
749.68901	0.04666
747.62942	0.04733
745.56984	0.04803
743.51025	0.04862
741.45067	0.04921
739.39108	0.04994
737.33150	0.05067
735.27191	0.05132
733.21233	0.05211
731.15274	0.05305
729.09316	0.05408
727.03357	0.05522
724.97399	0.05653
722.91440	0.05792
720.85482	0.05920
718.79523	0.06026
716.73565	0.06148
714.67606	0.06288
712.61648	0.06444
710.55689	0.06599
708.49731	0.06737
706.43772	0.06859
704.37814	0.06975
702.31855	0.07089
700.25897	0.07186
698.19938	0.07251
696.13979	0.07293
694.08021	0.07334
692.02062	0.07381
689.96104	0.07418
687.90145	0.07447
685.84187	0.07474
683.78228	0.07465
681.72270	0.07450
679.66311	0.07482
677.60353	0.07511
675.54394	0.07504
673.48436	0.07515
671.42477	0.07496
669.36519	0.07397
667.30560	0.07556
665.24602	0.07506
663.18643	0.07472
661.12685	0.07469
659.06726	0.07453
657.00768	0.07448
654.94809	0.07451
652.88851	0.07430
650.82892	0.07427
648.76934	0.07447
646.70975	0.07453
644.65016	0.07452
642.59058	0.07443
640.53099	0.07434
638.47141	0.07435
636.41182	0.07435
634.35224	0.07448
632.29265	0.07485
630.23307	0.07532
628.17348	0.07589
626.11390	0.07657
624.05431	0.07713
621.99473	0.07762
619.93514	0.07831
617.87556	0.07900
615.81597	0.07914
613.75639	0.07872
611.69680	0.07818
609.63722	0.07769
607.57763	0.07726
605.51805	0.07684
603.45846	0.07638
601.39888	0.07588
599.33929	0.07538
597.27971	0.07496
595.22012	0.07471
593.16054	0.07469
591.10095	0.07480
589.04136	0.07477
586.98178	0.07453
584.92219	0.07436
582.86261	0.07452
580.80302	0.07489
578.74344	0.07523
576.68385	0.07548
574.62427	0.07572
572.56468	0.07595
570.50510	0.07611
568.44551	0.07639
566.38593	0.07685
564.32634	0.07734
562.26676	0.07759
560.20717	0.07764
558.14759	0.07782
556.08800	0.07816
554.02842	0.07841
551.96883	0.07843
549.90925	0.07826
547.84966	0.07809
545.79008	0.07809
543.73049	0.07799
541.67091	0.07753
539.61132	0.07692
537.55173	0.07636
535.49215	0.07588
533.43256	0.07559
531.37298	0.07534
529.31339	0.07486
527.25381	0.07404
525.19422	0.07306
523.13464	0.07225
521.07505	0.07163
519.01547	0.07108
516.95588	0.07062
514.89630	0.07012
512.83671	0.06956
510.77713	0.06907
508.71754	0.06855
506.65796	0.06788
504.59837	0.06711
502.53879	0.06639
500.47920	0.06590
498.41962	0.06550
496.36003	0.06494
494.30045	0.06432
492.24086	0.06384
490.18128	0.06358
488.12169	0.06324
486.06211	0.06273
484.00252	0.06228
481.94293	0.06190
479.88335	0.06139
477.82376	0.06082
475.76418	0.06039
473.70459	0.06009
471.64501	0.05980
469.58542	0.05940
467.52584	0.05884
465.46625	0.05831
463.40667	0.05800
461.34708	0.05775
459.28750	0.05746
457.22791	0.05710
455.16833	0.05656
453.10874	0.05601
451.04916	0.05611
448.98957	0.05708
446.92999	0.05814
444.87040	0.05863
442.81082	0.05851
440.75123	0.05788
438.69165	0.05704
436.63206	0.05635
434.57248	0.05572
432.51289	0.05484
430.45330	0.05386
428.39372	0.05301
426.33413	0.05207
424.27455	0.05100
422.21496	0.05007
420.15538	0.04938
418.09579	0.04898
416.03621	0.04883
413.97662	0.04869
411.91704	0.04849
409.85745	0.04811
407.79787	0.04748
405.73828	0.04676
403.67870	0.04623
401.61911	0.04601
399.55953	0.04593
