3997.65486	0.09804
3995.59527	0.09888
3993.53569	0.09923
3991.47610	0.09903
3989.41652	0.09896
3987.35693	0.09891
3985.29735	0.09815
3983.23776	0.09693
3981.17817	0.09617
3979.11859	0.09609
3977.05900	0.09610
3974.99942	0.09614
3972.93983	0.09658
3970.88025	0.09708
3968.82066	0.09713
3966.76108	0.09686
3964.70149	0.09666
3962.64191	0.09660
3960.58232	0.09646
3958.52274	0.09620
3956.46315	0.09601
3954.40357	0.09593
3952.34398	0.09577
3950.28440	0.09565
3948.22481	0.09588
3946.16523	0.09610
3944.10564	0.09588
3942.04606	0.09570
3939.98647	0.09588
3937.92689	0.09603
3935.86730	0.09598
3933.80772	0.09586
3931.74813	0.09583
3929.68855	0.09574
3927.62896	0.09520
3925.56937	0.09446
3923.50979	0.09386
3921.45020	0.09340
3919.39062	0.09336
3917.33103	0.09385
3915.27145	0.09407
3913.21186	0.09366
3911.15228	0.09308
3909.09269	0.09248
3907.03311	0.09169
3904.97352	0.09112
3902.91394	0.09160
3900.85435	0.09297
3898.79477	0.09398
3896.73518	0.09373
3894.67560	0.09262
3892.61601	0.09208
3890.55643	0.09245
3888.49684	0.09246
3886.43726	0.09210
3884.37767	0.09229
3882.31809	0.09276
3880.25850	0.09291
3878.19892	0.09238
3876.13933	0.09129
3874.07974	0.09049
3872.02016	0.09061
3869.96057	0.09136
3867.90099	0.09162
3865.84140	0.09080
3863.78182	0.08980
3861.72223	0.08961
3859.66265	0.08979
3857.60306	0.08968
3855.54348	0.08968
3853.48389	0.09074
3851.42431	0.09196
3849.36472	0.09180
3847.30514	0.09077
3845.24555	0.08994
3843.18597	0.08973
3841.12638	0.08968
3839.06680	0.08949
3837.00721	0.08943
3834.94763	0.08929
3832.88804	0.08874
3830.82846	0.08816
3828.76887	0.08796
3826.70929	0.08822
3824.64970	0.08863
3822.59012	0.08857
3820.53053	0.08791
3818.47094	0.08712
3816.41136	0.08665
3814.35177	0.08643
3812.29219	0.08583
3810.23260	0.08513
3808.17302	0.08550
3806.11343	0.08688
3804.05385	0.08787
3801.99426	0.08827
3799.93468	0.08851
3797.87509	0.08835
3795.81551	0.08763
3793.75592	0.08678
3791.69634	0.08643
3789.63675	0.08644
3787.57717	0.08619
3785.51758	0.08549
3783.45800	0.08477
3781.39841	0.08453
3779.33883	0.08481
3777.27924	0.08505
3775.21966	0.08487
3773.16007	0.08468
3771.10049	0.08476
3769.04090	0.08477
3766.98132	0.08458
3764.92173	0.08463
3762.86214	0.08459
3760.80256	0.08397
3758.74297	0.08354
3756.68339	0.08382
3754.62380	0.08407
3752.56422	0.08428
3750.50463	0.08490
3748.44505	0.08517
3746.38546	0.08498
3744.32588	0.08492
3742.26629	0.08408
3740.20671	0.08233
3738.14712	0.08118
3736.08754	0.08169
3734.02795	0.08292
3731.96837	0.08327
3729.90878	0.08250
3727.84920	0.08129
3725.78961	0.08053
3723.73003	0.08043
3721.67044	0.08015
3719.61086	0.07958
3717.55127	0.07978
3715.49169	0.08086
3713.43210	0.08167
3711.37251	0.08143
3709.31293	0.08049
3707.25334	0.07979
3705.19376	0.07947
3703.13417	0.07934
3701.07459	0.07936
3699.01500	0.07944
3696.95542	0.07947
3694.89583	0.07916
3692.83625	0.07843
3690.77666	0.07805
3688.71708	0.07848
3686.65749	0.07915
3684.59791	0.07944
3682.53832	0.07928
3680.47874	0.07900
3678.41915	0.07887
3676.35957	0.07886
3674.29998	0.07894
3672.24040	0.07913
3670.18081	0.07918
3668.12123	0.07880
3666.06164	0.07830
3664.00206	0.07826
3661.94247	0.07877
3659.88289	0.07933
3657.82330	0.07955
3655.76371	0.07957
3653.70413	0.07943
3651.64454	0.07934
3649.58496	0.07984
3647.52537	0.08080
3645.46579	0.08141
3643.40620	0.08144
3641.34662	0.08109
3639.28703	0.08062
3637.22745	0.08037
3635.16786	0.08082
3633.10828	0.08192
3631.04869	0.08313
3628.98911	0.08429
3626.92952	0.08470
3624.86994	0.08385
3622.81035	0.08262
3620.75077	0.08234
3618.69118	0.08344
3616.63160	0.08464
3614.57201	0.08536
3612.51243	0.08603
3610.45284	0.08639
3608.39326	0.08649
3606.33367	0.08682
3604.27408	0.08742
3602.21450	0.08816
3600.15491	0.08877
3598.09533	0.08890
3596.03574	0.08872
3593.97616	0.08869
3591.91657	0.08899
3589.85699	0.08957
3587.79740	0.09057
3585.73782	0.09156
3583.67823	0.09202
3581.61865	0.09212
3579.55906	0.09237
3577.49948	0.09292
3575.43989	0.09336
3573.38031	0.09361
3571.32072	0.09403
3569.26114	0.09482
3567.20155	0.09598
3565.14197	0.09720
3563.08238	0.09793
3561.02280	0.09808
3558.96321	0.09801
3556.90363	0.09796
3554.84404	0.09794
3552.78446	0.09826
3550.72487	0.09898
3548.66528	0.09973
3546.60570	0.10085
3544.54611	0.10221
3542.48653	0.10294
3540.42694	0.10346
3538.36736	0.10418
3536.30777	0.10431
3534.24819	0.10376
3532.18860	0.10371
3530.12902	0.10462
3528.06943	0.10569
3526.00985	0.10652
3523.95026	0.10736
3521.89068	0.10768
3519.83109	0.10736
3517.77151	0.10730
3515.71192	0.10773
3513.65234	0.10802
3511.59275	0.10820
3509.53317	0.10886
3507.47358	0.11000
3505.41400	0.11083
3503.35441	0.11107
3501.29483	0.11118
3499.23524	0.11131
3497.17565	0.11144
3495.11607	0.11186
3493.05648	0.11271
3490.99690	0.11368
3488.93731	0.11478
3486.87773	0.11575
3484.81814	0.11596
3482.75856	0.11548
3480.69897	0.11503
3478.63939	0.11502
3476.57980	0.11530
3474.52022	0.11573
3472.46063	0.11630
3470.40105	0.11709
3468.34146	0.11806
3466.28188	0.11877
3464.22229	0.11902
3462.16271	0.11928
3460.10312	0.11985
3458.04354	0.12048
3455.98395	0.12112
3453.92437	0.12163
3451.86478	0.12181
3449.80520	0.12195
3447.74561	0.12227
3445.68603	0.12278
3443.62644	0.12329
3441.56685	0.12370
3439.50727	0.12407
3437.44768	0.12452
3435.38810	0.12531
3433.32851	0.12628
3431.26893	0.12693
3429.20934	0.12727
3427.14976	0.12771
3425.09017	0.12841
3423.03059	0.12923
3420.97100	0.13005
3418.91142	0.13069
3416.85183	0.13113
3414.79225	0.13155
3412.73266	0.13222
3410.67308	0.13290
3408.61349	0.13303
3406.55391	0.13291
3404.49432	0.13317
3402.43474	0.13405
3400.37515	0.13535
3398.31557	0.13639
3396.25598	0.13712
3394.19640	0.13772
3392.13681	0.13785
3390.07723	0.13798
3388.01764	0.13867
3385.95805	0.13949
3383.89847	0.14039
3381.83888	0.14147
3379.77930	0.14218
3377.71971	0.14260
3375.66013	0.14337
3373.60054	0.14436
3371.54096	0.14515
3369.48137	0.14603
3367.42179	0.14729
3365.36220	0.14852
3363.30262	0.14940
3361.24303	0.15033
3359.18345	0.15163
3357.12386	0.15309
3355.06428	0.15449
3353.00469	0.15583
3350.94511	0.15737
3348.88552	0.15905
3346.82594	0.16056
3344.76635	0.16214
3342.70677	0.16418
3340.64718	0.16640
3338.58760	0.16870
3336.52801	0.17123
3334.46842	0.17352
3332.40884	0.17527
3330.34925	0.17713
3328.28967	0.17944
3326.23008	0.18199
3324.17050	0.18471
3322.11091	0.18758
3320.05133	0.19062
3317.99174	0.19358
3315.93216	0.19626
3313.87257	0.19901
3311.81299	0.20214
3309.75340	0.20566
3307.69382	0.20966
3305.63423	0.21352
3303.57465	0.21640
3301.51506	0.21893
3299.45548	0.22201
3297.39589	0.22531
3295.33631	0.22832
3293.27672	0.23118
3291.21714	0.23416
3289.15755	0.23702
3287.09797	0.23965
3285.03838	0.24216
3282.97880	0.24427
3280.91921	0.24575
3278.85962	0.24665
3276.80004	0.24711
3274.74045	0.24713
3272.68087	0.24667
3270.62128	0.24554
3268.56170	0.24357
3266.50211	0.24131
3264.44253	0.23957
3262.38294	0.23790
3260.32336	0.23532
3258.26377	0.23218
3256.20419	0.22937
3254.14460	0.22707
3252.08502	0.22500
3250.02543	0.22277
3247.96585	0.22023
3245.90626	0.21769
3243.84668	0.21539
3241.78709	0.21319
3239.72751	0.21118
3237.66792	0.20941
3235.60834	0.20775
3233.54875	0.20626
3231.48917	0.20483
3229.42958	0.20309
3227.36999	0.20134
3225.31041	0.20001
3223.25082	0.19863
3221.19124	0.19720
3219.13165	0.19593
3217.07207	0.19459
3215.01248	0.19342
3212.95290	0.19245
3210.89331	0.19125
3208.83373	0.18988
3206.77414	0.18852
3204.71456	0.18709
3202.65497	0.18578
3200.59539	0.18478
3198.53580	0.18376
3196.47622	0.18257
3194.41663	0.18135
3192.35705	0.18005
3190.29746	0.17843
3188.23788	0.17663
3186.17829	0.17518
3184.11871	0.17409
3182.05912	0.17270
3179.99954	0.17114
3177.93995	0.16979
3175.88037	0.16804
3173.82078	0.16567
3171.76119	0.16361
3169.70161	0.16231
3167.64202	0.16130
3165.58244	0.16008
3163.52285	0.15843
3161.46327	0.15677
3159.40368	0.15537
3157.34410	0.15384
3155.28451	0.15204
3153.22493	0.15041
3151.16534	0.14917
3149.10576	0.14801
3147.04617	0.14662
3144.98659	0.14526
3142.92700	0.14419
3140.86742	0.14333
3138.80783	0.14234
3136.74825	0.14098
3134.68866	0.13986
3132.62908	0.13930
3130.56949	0.13864
3128.50991	0.13776
3126.45032	0.13711
3124.39074	0.13684
3122.33115	0.13664
3120.27156	0.13605
3118.21198	0.13530
3116.15239	0.13505
3114.09281	0.13533
3112.03322	0.13559
3109.97364	0.13561
3107.91405	0.13571
3105.85447	0.13598
3103.79488	0.13623
3101.73530	0.13637
3099.67571	0.13636
3097.61613	0.13615
3095.55654	0.13609
3093.49696	0.13647
3091.43737	0.13714
3089.37779	0.13779
3087.31820	0.13824
3085.25862	0.13868
3083.19903	0.13905
3081.13945	0.13902
3079.07986	0.13891
3077.02028	0.13902
3074.96069	0.13909
3072.90111	0.13903
3070.84152	0.13925
3068.78194	0.13946
3066.72235	0.13911
3064.66276	0.13837
3062.60318	0.13758
3060.54359	0.13693
3058.48401	0.13639
3056.42442	0.13585
3054.36484	0.13517
3052.30525	0.13415
3050.24567	0.13312
3048.18608	0.13239
3046.12650	0.13162
3044.06691	0.13061
3042.00733	0.12942
3039.94774	0.12823
3037.88816	0.12732
3035.82857	0.12671
3033.76899	0.12585
3031.70940	0.12441
3029.64982	0.12282
3027.59023	0.12152
3025.53065	0.12068
3023.47106	0.12018
3021.41148	0.11958
3019.35189	0.11871
3017.29231	0.11778
3015.23272	0.11702
3013.17313	0.11656
3011.11355	0.11630
3009.05396	0.11582
3006.99438	0.11494
3004.93479	0.11436
3002.87521	0.11455
3000.81562	0.11504
2998.75604	0.11550
2996.69645	0.11599
2994.63687	0.11634
2992.57728	0.11662
2990.51770	0.11695
2988.45811	0.11718
2986.39853	0.11748
2984.33894	0.11790
2982.27936	0.11841
2980.21977	0.11906
2978.16019	0.11968
2976.10060	0.11998
2974.04102	0.12009
2971.98143	0.12039
2969.92185	0.12086
2967.86226	0.12125
2965.80268	0.12146
2963.74309	0.12125
2961.68351	0.12074
2959.62392	0.12034
2957.56433	0.12008
2955.50475	0.11987
2953.44516	0.11960
2951.38558	0.11927
2949.32599	0.11905
2947.26641	0.11897
2945.20682	0.11916
2943.14724	0.11968
2941.08765	0.12044
2939.02807	0.12162
2936.96848	0.12318
2934.90890	0.12440
2932.84931	0.12499
2930.78973	0.12532
2928.73014	0.12558
2926.67056	0.12588
2924.61097	0.12617
2922.55139	0.12633
2920.49180	0.12639
2918.43222	0.12604
2916.37263	0.12493
2914.31305	0.12278
2912.25346	0.11979
2910.19388	0.11708
2908.13429	0.11530
2906.07471	0.11385
2904.01512	0.11243
2901.95553	0.11132
2899.89595	0.11024
2897.83636	0.10914
2895.77678	0.10850
2893.71719	0.10799
2891.65761	0.10708
2889.59802	0.10631
2887.53844	0.10609
2885.47885	0.10598
2883.41927	0.10578
2881.35968	0.10569
2879.30010	0.10577
2877.24051	0.10587
2875.18093	0.10597
2873.12134	0.10611
2871.06176	0.10592
2869.00217	0.10528
2866.94259	0.10455
2864.88300	0.10406
2862.82342	0.10370
2860.76383	0.10318
2858.70425	0.10280
2856.64466	0.10293
2854.58508	0.10344
2852.52549	0.10431
2850.46590	0.10508
2848.40632	0.10457
2846.34673	0.10253
2844.28715	0.10004
2842.22756	0.09804
2840.16798	0.09677
2838.10839	0.09600
2836.04881	0.09560
2833.98922	0.09541
2831.92964	0.09503
2829.87005	0.09446
2827.81047	0.09398
2825.75088	0.09352
2823.69130	0.09314
2821.63171	0.09290
2819.57213	0.09261
2817.51254	0.09227
2815.45296	0.09203
2813.39337	0.09173
2811.33379	0.09137
2809.27420	0.09112
2807.21462	0.09091
2805.15503	0.09071
2803.09545	0.09056
2801.03586	0.09032
2798.97628	0.08992
2796.91669	0.08940
2794.85710	0.08895
2792.79752	0.08890
2790.73793	0.08904
2788.67835	0.08900
2786.61876	0.08881
2784.55918	0.08844
2782.49959	0.08770
2780.44001	0.08705
2778.38042	0.08697
2776.32084	0.08705
2774.26125	0.08694
2772.20167	0.08691
2770.14208	0.08687
2768.08250	0.08639
2766.02291	0.08567
2763.96333	0.08519
2761.90374	0.08501
2759.84416	0.08500
2757.78457	0.08487
2755.72499	0.08449
2753.66540	0.08410
2751.60582	0.08384
2749.54623	0.08365
2747.48665	0.08342
2745.42706	0.08320
2743.36747	0.08309
2741.30789	0.08295
2739.24830	0.08262
2737.18872	0.08212
2735.12913	0.08166
2733.06955	0.08154
2731.00996	0.08154
2728.95038	0.08123
2726.89079	0.08078
2724.83121	0.08052
2722.77162	0.08036
2720.71204	0.08025
2718.65245	0.08008
2716.59287	0.07983
2714.53328	0.07969
2712.47370	0.07943
2710.41411	0.07898
2708.35453	0.07874
2706.29494	0.07864
2704.23536	0.07847
2702.17577	0.07817
2700.11619	0.07791
2698.05660	0.07788
2695.99702	0.07784
2693.93743	0.07763
2691.87785	0.07734
2689.81826	0.07708
2687.75867	0.07688
2685.69909	0.07681
2683.63950	0.07689
2681.57992	0.07694
2679.52033	0.07682
2677.46075	0.07642
2675.40116	0.07583
2673.34158	0.07532
2671.28199	0.07502
2669.22241	0.07487
2667.16282	0.07496
2665.10324	0.07509
2663.04365	0.07509
2660.98407	0.07506
2658.92448	0.07502
2656.86490	0.07475
2654.80531	0.07428
2652.74573	0.07380
2650.68614	0.07336
2648.62656	0.07302
2646.56697	0.07292
2644.50739	0.07293
2642.44780	0.07278
2640.38822	0.07255
2638.32863	0.07231
2636.26904	0.07185
2634.20946	0.07146
2632.14987	0.07161
2630.09029	0.07197
2628.03070	0.07186
2625.97112	0.07137
2623.91153	0.07100
2621.85195	0.07084
2619.79236	0.07083
2617.73278	0.07086
2615.67319	0.07064
2613.61361	0.07020
2611.55402	0.06988
2609.49444	0.06967
2607.43485	0.06916
2605.37527	0.06843
2603.31568	0.06790
2601.25610	0.06790
2599.19651	0.06827
2597.13693	0.06831
2595.07734	0.06788
2593.01776	0.06750
2590.95817	0.06741
2588.89859	0.06733
2586.83900	0.06710
2584.77942	0.06689
2582.71983	0.06649
2580.66024	0.06590
2578.60066	0.06571
2576.54107	0.06587
2574.48149	0.06583
2572.42190	0.06573
2570.36232	0.06563
2568.30273	0.06528
2566.24315	0.06479
2564.18356	0.06450
2562.12398	0.06443
2560.06439	0.06418
2558.00481	0.06392
2555.94522	0.06402
2553.88564	0.06419
2551.82605	0.06395
2549.76647	0.06343
2547.70688	0.06284
2545.64730	0.06251
2543.58771	0.06279
2541.52813	0.06314
2539.46854	0.06304
2537.40896	0.06279
2535.34937	0.06275
2533.28979	0.06264
2531.23020	0.06219
2529.17062	0.06175
2527.11103	0.06142
2525.05144	0.06114
2522.99186	0.06103
2520.93227	0.06091
2518.87269	0.06071
2516.81310	0.06027
2514.75352	0.05986
2512.69393	0.06004
2510.63435	0.06049
2508.57476	0.06066
2506.51518	0.06061
2504.45559	0.06049
2502.39601	0.06025
2500.33642	0.05997
2498.27684	0.05964
2496.21725	0.05948
2494.15767	0.05961
2492.09808	0.05952
2490.03850	0.05937
2487.97891	0.05957
2485.91933	0.05984
2483.85974	0.05964
2481.80016	0.05932
2479.74057	0.05939
2477.68099	0.05928
2475.62140	0.05870
2473.56181	0.05823
2471.50223	0.05810
2469.44264	0.05828
2467.38306	0.05834
2465.32347	0.05783
2463.26389	0.05727
2461.20430	0.05731
2459.14472	0.05771
2457.08513	0.05796
2455.02555	0.05790
2452.96596	0.05740
2450.90638	0.05679
2448.84679	0.05670
2446.78721	0.05694
2444.72762	0.05701
2442.66804	0.05702
2440.60845	0.05723
2438.54887	0.05717
2436.48928	0.05656
2434.42970	0.05605
2432.37011	0.05598
2430.31053	0.05594
2428.25094	0.05588
2426.19136	0.05578
2424.13177	0.05533
2422.07219	0.05488
2420.01260	0.05501
2417.95301	0.05538
2415.89343	0.05548
2413.83384	0.05533
2411.77426	0.05523
2409.71467	0.05538
2407.65509	0.05550
2405.59550	0.05527
2403.53592	0.05525
2401.47633	0.05563
2399.41675	0.05540
2397.35716	0.05471
2395.29758	0.05431
2393.23799	0.05433
2391.17841	0.05425
2389.11882	0.05389
2387.05924	0.05371
2384.99965	0.05391
2382.94007	0.05412
2380.88048	0.05403
2378.82090	0.05372
2376.76131	0.05358
2374.70173	0.05309
2372.64214	0.05308
2370.58256	0.05387
2368.52297	0.05392
2366.46338	0.05386
2364.40380	0.05305
2362.34421	0.05248
2360.28463	0.05333
2358.22504	0.05342
2356.16546	0.05348
2354.10587	0.05328
2352.04629	0.05332
2349.98670	0.05523
2347.92712	0.05459
2345.86753	0.05288
2343.80795	0.05290
2341.74836	0.05226
2339.68878	0.05305
2337.62919	0.05361
2335.56961	0.05301
2333.51002	0.05339
2331.45044	0.05306
2329.39085	0.05386
2327.33127	0.05385
2325.27168	0.05451
2323.21210	0.05430
2321.15251	0.05393
2319.09293	0.05369
2317.03334	0.05335
2314.97376	0.05299
2312.91417	0.05246
2310.85458	0.05180
2308.79500	0.05130
2306.73541	0.05103
2304.67583	0.05127
2302.61624	0.05154
2300.55666	0.05153
2298.49707	0.05139
2296.43749	0.05109
2294.37790	0.05034
2292.31832	0.04979
2290.25873	0.04967
2288.19915	0.04969
2286.13956	0.04967
2284.07998	0.04952
2282.02039	0.04919
2279.96081	0.04895
2277.90122	0.04860
2275.84164	0.04793
2273.78205	0.04746
2271.72247	0.04732
2269.66288	0.04707
2267.60330	0.04647
2265.54371	0.04589
2263.48413	0.04573
2261.42454	0.04588
2259.36495	0.04580
2257.30537	0.04519
2255.24578	0.04457
2253.18620	0.04458
2251.12661	0.04480
2249.06703	0.04446
2247.00744	0.04372
2244.94786	0.04341
2242.88827	0.04368
2240.82869	0.04381
2238.76910	0.04358
2236.70952	0.04298
2234.64993	0.04214
2232.59035	0.04171
2230.53076	0.04165
2228.47118	0.04192
2226.41159	0.04231
2224.35201	0.04188
2222.29242	0.04087
2220.23284	0.04046
2218.17325	0.04080
2216.11367	0.04153
2214.05408	0.04215
2211.99450	0.04190
2209.93491	0.04097
2207.87533	0.04006
2205.81574	0.03955
2203.75615	0.03975
2201.69657	0.04034
2199.63698	0.04012
2197.57740	0.03930
2195.51781	0.03881
2193.45823	0.03839
2191.39864	0.03824
2189.33906	0.03867
2187.27947	0.03932
2185.21989	0.03955
2183.16030	0.03879
2181.10072	0.03774
2179.04113	0.03713
2176.98155	0.03699
2174.92196	0.03739
2172.86238	0.03784
2170.80279	0.03815
2168.74321	0.03802
2166.68362	0.03711
2164.62404	0.03627
2162.56445	0.03516
2160.50487	0.03278
2158.44528	0.03110
2156.38570	0.03193
2154.32611	0.03434
2152.26652	0.03644
2150.20694	0.03689
2148.14735	0.03632
2146.08777	0.03564
2144.02818	0.03497
2141.96860	0.03480
2139.90901	0.03549
2137.84943	0.03619
2135.78984	0.03626
2133.73026	0.03621
2131.67067	0.03658
2129.61109	0.03714
2127.55150	0.03747
2125.49192	0.03752
2123.43233	0.03763
2121.37275	0.03807
2119.31316	0.03834
2117.25358	0.03832
2115.19399	0.03833
2113.13441	0.03849
2111.07482	0.03907
2109.01524	0.03985
2106.95565	0.04003
2104.89607	0.03956
2102.83648	0.03893
2100.77690	0.03800
2098.71731	0.03741
2096.65772	0.03750
2094.59814	0.03728
2092.53855	0.03659
2090.47897	0.03631
2088.41938	0.03657
2086.35980	0.03675
2084.30021	0.03654
2082.24063	0.03643
2080.18104	0.03694
2078.12146	0.03787
2076.06187	0.03826
2074.00229	0.03736
2071.94270	0.03606
2069.88312	0.03566
2067.82353	0.03609
2065.76395	0.03618
2063.70436	0.03582
2061.64478	0.03569
2059.58519	0.03540
2057.52561	0.03489
2055.46602	0.03448
2053.40644	0.03412
2051.34685	0.03385
2049.28727	0.03315
2047.22768	0.03197
2045.16810	0.03132
2043.10851	0.03105
2041.04892	0.03050
2038.98934	0.03003
2036.92975	0.02996
2034.87017	0.03025
2032.81058	0.02981
2030.75100	0.02806
2028.69141	0.02685
2026.63183	0.02728
2024.57224	0.02860
2022.51266	0.02977
2020.45307	0.03004
2018.39349	0.02946
2016.33390	0.02871
2014.27432	0.02843
2012.21473	0.02855
2010.15515	0.02838
2008.09556	0.02776
2006.03598	0.02724
2003.97639	0.02744
2001.91681	0.02859
1999.85722	0.03013
1997.79764	0.03100
1995.73805	0.03098
1993.67847	0.03061
1991.61888	0.03008
1989.55929	0.02961
1987.49971	0.02972
1985.44012	0.03026
1983.38054	0.03060
1981.32095	0.03008
1979.26137	0.02809
1977.20178	0.02570
1975.14220	0.02497
1973.08261	0.02540
1971.02303	0.02561
1968.96344	0.02600
1966.90386	0.02695
1964.84427	0.02766
1962.78469	0.02786
1960.72510	0.02807
1958.66552	0.02812
1956.60593	0.02757
1954.54635	0.02704
1952.48676	0.02707
1950.42718	0.02723
1948.36759	0.02743
1946.30801	0.02820
1944.24842	0.02904
1942.18884	0.02886
1940.12925	0.02844
1938.06967	0.02872
1936.01008	0.02875
1933.95049	0.02807
1931.89091	0.02734
1929.83132	0.02705
1927.77174	0.02743
1925.71215	0.02812
1923.65257	0.02845
1921.59298	0.02845
1919.53340	0.02846
1917.47381	0.02840
1915.41423	0.02814
1913.35464	0.02798
1911.29506	0.02814
1909.23547	0.02851
1907.17589	0.02888
1905.11630	0.02915
1903.05672	0.02913
1900.99713	0.02872
1898.93755	0.02830
1896.87796	0.02841
1894.81838	0.02862
1892.75879	0.02826
1890.69921	0.02784
1888.63962	0.02772
1886.58004	0.02754
1884.52045	0.02741
1882.46086	0.02758
1880.40128	0.02784
1878.34169	0.02792
1876.28211	0.02774
1874.22252	0.02736
1872.16294	0.02715
1870.10335	0.02731
1868.04377	0.02753
1865.98418	0.02742
1863.92460	0.02704
1861.86501	0.02666
1859.80543	0.02647
1857.74584	0.02639
1855.68626	0.02630
1853.62667	0.02629
1851.56709	0.02629
1849.50750	0.02604
1847.44792	0.02556
1845.38833	0.02517
1843.32875	0.02520
1841.26916	0.02552
1839.20958	0.02567
1837.14999	0.02549
1835.09041	0.02522
1833.03082	0.02511
1830.97124	0.02512
1828.91165	0.02506
1826.85206	0.02500
1824.79248	0.02493
1822.73289	0.02479
1820.67331	0.02455
1818.61372	0.02429
1816.55414	0.02412
1814.49455	0.02404
1812.43497	0.02399
1810.37538	0.02400
1808.31580	0.02408
1806.25621	0.02424
1804.19663	0.02443
1802.13704	0.02447
1800.07746	0.02414
1798.01787	0.02359
1795.95829	0.02316
1793.89870	0.02293
1791.83912	0.02297
1789.77953	0.02319
1787.71995	0.02330
1785.66036	0.02325
1783.60078	0.02319
1781.54119	0.02321
1779.48161	0.02327
1777.42202	0.02333
1775.36243	0.02331
1773.30285	0.02310
1771.24326	0.02278
1769.18368	0.02264
1767.12409	0.02267
1765.06451	0.02262
1763.00492	0.02243
1760.94534	0.02228
1758.88575	0.02225
1756.82617	0.02232
1754.76658	0.02245
1752.70700	0.02256
1750.64741	0.02270
1748.58783	0.02291
1746.52824	0.02310
1744.46866	0.02316
1742.40907	0.02323
1740.34949	0.02338
1738.28990	0.02348
1736.23032	0.02348
1734.17073	0.02359
1732.11115	0.02385
1730.05156	0.02402
1727.99198	0.02415
1725.93239	0.02445
1723.87281	0.02494
1721.81322	0.02543
1719.75363	0.02608
1717.69405	0.02739
1715.63446	0.02935
1713.57488	0.03152
1711.51529	0.03410
1709.45571	0.03768
1707.39612	0.04304
1705.33654	0.05024
1703.27695	0.05766
1701.21737	0.06521
1699.15778	0.07322
1697.09820	0.07945
1695.03861	0.08359
1692.97903	0.08644
1690.91944	0.08918
1688.85986	0.09257
1686.80027	0.09650
1684.74069	0.10207
1682.68110	0.10895
1680.62152	0.11440
1678.56193	0.11884
1676.50235	0.12408
1674.44276	0.13056
1672.38318	0.13699
1670.32359	0.14382
1668.26401	0.15135
1666.20442	0.15766
1664.14483	0.16362
1662.08525	0.17074
1660.02566	0.17735
1657.96608	0.18199
1655.90649	0.18598
1653.84691	0.19247
1651.78732	0.20044
1649.72774	0.20493
1647.66815	0.20875
1645.60857	0.21433
1643.54898	0.21907
1641.48940	0.22242
1639.42981	0.22561
1637.37023	0.23038
1635.31064	0.23756
1633.25106	0.24366
1631.19147	0.24711
1629.13189	0.25002
1627.07230	0.25293
1625.01272	0.25444
1622.95313	0.25365
1620.89355	0.25040
1618.83396	0.24501
1616.77438	0.23778
1614.71479	0.22971
1612.65520	0.22145
1610.59562	0.21223
1608.53603	0.20179
1606.47645	0.19093
1604.41686	0.18027
1602.35728	0.16997
1600.29769	0.16032
1598.23811	0.15166
1596.17852	0.14388
1594.11894	0.13672
1592.05935	0.13012
1589.99977	0.12410
1587.94018	0.11887
1585.88060	0.11471
1583.82101	0.11165
1581.76143	0.10955
1579.70184	0.10839
1577.64226	0.10842
1575.58267	0.10960
1573.52309	0.11094
1571.46350	0.11264
1569.40392	0.11582
1567.34433	0.11985
1565.28475	0.12358
1563.22516	0.12671
1561.16558	0.13049
1559.10599	0.13781
1557.04640	0.14625
1554.98682	0.15128
1552.92723	0.15501
1550.86765	0.15922
1548.80806	0.16363
1546.74848	0.16745
1544.68889	0.17088
1542.62931	0.17488
1540.56972	0.18029
1538.51014	0.18574
1536.45055	0.18885
1534.39097	0.19158
1532.33138	0.19536
1530.27180	0.19870
1528.21221	0.20162
1526.15263	0.20497
1524.09304	0.20852
1522.03346	0.21280
1519.97387	0.21787
1517.91429	0.22252
1515.85470	0.22621
1513.79512	0.22775
1511.73553	0.22678
1509.67595	0.22416
1507.61636	0.22020
1505.55677	0.21493
1503.49719	0.20923
1501.43760	0.20325
1499.37802	0.19640
1497.31843	0.18833
1495.25885	0.18001
1493.19926	0.17260
1491.13968	0.16510
1489.08009	0.15673
1487.02051	0.14904
1484.96092	0.14273
1482.90134	0.13710
1480.84175	0.13184
1478.78217	0.12731
1476.72258	0.12359
1474.66300	0.12058
1472.60341	0.11829
1470.54383	0.11653
1468.48424	0.11507
1466.42466	0.11395
1464.36507	0.11345
1462.30549	0.11346
1460.24590	0.11410
1458.18632	0.11665
1456.12673	0.12124
1454.06715	0.12497
1452.00756	0.12720
1449.94797	0.12900
1447.88839	0.13065
1445.82880	0.13153
1443.76922	0.13115
1441.70963	0.12971
1439.65005	0.12760
1437.59046	0.12499
1435.53088	0.12194
1433.47129	0.11885
1431.41171	0.11601
1429.35212	0.11368
1427.29254	0.11213
1425.23295	0.11129
1423.17337	0.11095
1421.11378	0.11113
1419.05420	0.11212
1416.99461	0.11339
1414.93503	0.11409
1412.87544	0.11429
1410.81586	0.11428
1408.75627	0.11400
1406.69669	0.11333
1404.63710	0.11229
1402.57752	0.11100
1400.51793	0.10960
1398.45834	0.10833
1396.39876	0.10738
1394.33917	0.10675
1392.27959	0.10629
1390.22000	0.10593
1388.16042	0.10577
1386.10083	0.10567
1384.04125	0.10533
1381.98166	0.10474
1379.92208	0.10423
1377.86249	0.10405
1375.80291	0.10433
1373.74332	0.10493
1371.68374	0.10530
1369.62415	0.10493
1367.56457	0.10370
1365.50498	0.10192
1363.44540	0.09998
1361.38581	0.09817
1359.32623	0.09662
1357.26664	0.09531
1355.20706	0.09427
1353.14747	0.09349
1351.08789	0.09295
1349.02830	0.09270
1346.96872	0.09276
1344.90913	0.09298
1342.84954	0.09318
1340.78996	0.09338
1338.73037	0.09353
1336.67079	0.09346
1334.61120	0.09313
1332.55162	0.09258
1330.49203	0.09181
1328.43245	0.09085
1326.37286	0.08978
1324.31328	0.08873
1322.25369	0.08779
1320.19411	0.08699
1318.13452	0.08644
1316.07494	0.08619
1314.01535	0.08612
1311.95577	0.08599
1309.89618	0.08568
1307.83660	0.08526
1305.77701	0.08480
1303.71743	0.08438
1301.65784	0.08407
1299.59826	0.08385
1297.53867	0.08361
1295.47909	0.08339
1293.41950	0.08331
1291.35991	0.08338
1289.30033	0.08346
1287.24074	0.08356
1285.18116	0.08381
1283.12157	0.08419
1281.06199	0.08459
1279.00240	0.08506
1276.94282	0.08570
1274.88323	0.08659
1272.82365	0.08771
1270.76406	0.08895
1268.70448	0.09020
1266.64489	0.09143
1264.58531	0.09254
1262.52572	0.09354
1260.46614	0.09460
1258.40655	0.09574
1256.34697	0.09689
1254.28738	0.09815
1252.22780	0.09960
1250.16821	0.10121
1248.10863	0.10291
1246.04904	0.10478
1243.98946	0.10676
1241.92987	0.10869
1239.87029	0.11054
1237.81070	0.11218
1235.75111	0.11339
1233.69153	0.11413
1231.63194	0.11451
1229.57236	0.11456
1227.51277	0.11423
1225.45319	0.11362
1223.39360	0.11282
1221.33402	0.11168
1219.27443	0.11000
1217.21485	0.10777
1215.15526	0.10512
1213.09568	0.10204
1211.03609	0.09851
1208.97651	0.09478
1206.91692	0.09107
1204.85734	0.08756
1202.79775	0.08438
1200.73817	0.08146
1198.67858	0.07881
1196.61900	0.07668
1194.55941	0.07507
1192.49983	0.07381
1190.44024	0.07271
1188.38066	0.07178
1186.32107	0.07122
1184.26149	0.07113
1182.20190	0.07146
1180.14231	0.07228
1178.08273	0.07362
1176.02314	0.07529
1173.96356	0.07698
1171.90397	0.07829
1169.84439	0.07892
1167.78480	0.07884
1165.72522	0.07816
1163.66563	0.07711
1161.60605	0.07578
1159.54646	0.07422
1157.48688	0.07255
1155.42729	0.07081
1153.36771	0.06911
1151.30812	0.06755
1149.24854	0.06606
1147.18895	0.06466
1145.12937	0.06343
1143.06978	0.06242
1141.01020	0.06157
1138.95061	0.06094
1136.89103	0.06040
1134.83144	0.05978
1132.77186	0.05916
1130.71227	0.05863
1128.65268	0.05813
1126.59310	0.05763
1124.53351	0.05709
1122.47393	0.05647
1120.41434	0.05580
1118.35476	0.05522
1116.29517	0.05482
1114.23559	0.05457
1112.17600	0.05431
1110.11642	0.05399
1108.05683	0.05381
1105.99725	0.05377
1103.93766	0.05359
1101.87808	0.05318
1099.81849	0.05268
1097.75891	0.05212
1095.69932	0.05162
1093.63974	0.05135
1091.58015	0.05125
1089.52057	0.05119
1087.46098	0.05134
1085.40140	0.05168
1083.34181	0.05193
1081.28223	0.05208
1079.22264	0.05226
1077.16306	0.05234
1075.10347	0.05225
1073.04388	0.05206
1070.98430	0.05187
1068.92471	0.05180
1066.86513	0.05187
1064.80554	0.05208
1062.74596	0.05243
1060.68637	0.05286
1058.62679	0.05328
1056.56720	0.05369
1054.50762	0.05399
1052.44803	0.05395
1050.38845	0.05346
1048.32886	0.05263
1046.26928	0.05170
1044.20969	0.05092
1042.15011	0.05033
1040.09052	0.04996
1038.03094	0.04990
1035.97135	0.05014
1033.91177	0.05060
1031.85218	0.05112
1029.79260	0.05146
1027.73301	0.05152
1025.67343	0.05144
1023.61384	0.05129
1021.55425	0.05098
1019.49467	0.05063
1017.43508	0.05047
1015.37550	0.05024
1013.31591	0.04979
1011.25633	0.04926
1009.19674	0.04864
1007.13716	0.04791
1005.07757	0.04722
1003.01799	0.04652
1000.95840	0.04567
998.89882	0.04468
996.83923	0.04362
994.77965	0.04253
992.72006	0.04157
990.66048	0.04080
988.60089	0.04015
986.54131	0.03965
984.48172	0.03941
982.42214	0.03931
980.36255	0.03944
978.30297	0.03983
976.24338	0.04038
974.18380	0.04114
972.12421	0.04226
970.06463	0.04375
968.00504	0.04529
965.94545	0.04636
963.88587	0.04659
961.82628	0.04581
959.76670	0.04417
957.70711	0.04226
955.64753	0.04069
953.58794	0.03956
951.52836	0.03867
949.46877	0.03792
947.40919	0.03740
945.34960	0.03714
943.29002	0.03689
941.23043	0.03652
939.17085	0.03616
937.11126	0.03592
935.05168	0.03584
932.99209	0.03586
930.93251	0.03595
928.87292	0.03597
926.81334	0.03576
924.75375	0.03525
922.69417	0.03463
920.63458	0.03409
918.57500	0.03361
916.51541	0.03314
914.45582	0.03267
912.39624	0.03228
910.33665	0.03202
908.27707	0.03181
906.21748	0.03154
904.15790	0.03129
902.09831	0.03125
900.03873	0.03129
897.97914	0.03113
895.91956	0.03083
893.85997	0.03054
891.80039	0.03034
889.74080	0.03021
887.68122	0.03002
885.62163	0.02987
883.56205	0.02985
881.50246	0.02977
879.44288	0.02957
877.38329	0.02932
875.32371	0.02912
873.26412	0.02903
871.20454	0.02891
869.14495	0.02874
867.08537	0.02867
865.02578	0.02875
862.96620	0.02891
860.90661	0.02910
858.84702	0.02940
856.78744	0.02977
854.72785	0.03006
852.66827	0.03023
850.60868	0.03038
848.54910	0.03051
846.48951	0.03049
844.42993	0.03045
842.37034	0.03050
840.31076	0.03057
838.25117	0.03069
836.19159	0.03098
834.13200	0.03146
832.07242	0.03192
830.01283	0.03231
827.95325	0.03255
825.89366	0.03254
823.83408	0.03237
821.77449	0.03220
819.71491	0.03216
817.65532	0.03222
815.59574	0.03229
813.53615	0.03255
811.47657	0.03299
809.41698	0.03338
807.35740	0.03365
805.29781	0.03383
803.23822	0.03394
801.17864	0.03407
799.11905	0.03417
797.05947	0.03416
794.99988	0.03430
792.94030	0.03471
790.88071	0.03518
788.82113	0.03566
786.76154	0.03625
784.70196	0.03689
782.64237	0.03738
780.58279	0.03784
778.52320	0.03838
776.46362	0.03887
774.40403	0.03926
772.34445	0.03964
770.28486	0.03994
768.22528	0.04013
766.16569	0.04038
764.10611	0.04062
762.04652	0.04066
759.98694	0.04070
757.92735	0.04100
755.86777	0.04144
753.80818	0.04183
751.74859	0.04222
749.68901	0.04260
747.62942	0.04298
745.56984	0.04348
743.51025	0.04413
741.45067	0.04479
739.39108	0.04539
737.33150	0.04617
735.27191	0.04712
733.21233	0.04811
731.15274	0.04908
729.09316	0.04998
727.03357	0.05087
724.97399	0.05184
722.91440	0.05297
720.85482	0.05418
718.79523	0.05558
716.73565	0.05679
714.67606	0.05806
712.61648	0.05951
710.55689	0.06098
708.49731	0.06229
706.43772	0.06335
704.37814	0.06422
702.31855	0.06510
700.25897	0.06593
698.19938	0.06653
696.13979	0.06700
694.08021	0.06745
692.02062	0.06779
689.96104	0.06808
687.90145	0.06836
685.84187	0.06854
683.78228	0.06867
681.72270	0.06893
679.66311	0.06923
677.60353	0.06939
675.54394	0.06933
673.48436	0.06917
671.42477	0.06975
669.36519	0.07058
667.30560	0.06821
665.24602	0.06989
663.18643	0.06940
661.12685	0.06903
659.06726	0.06908
657.00768	0.06913
654.94809	0.06902
652.88851	0.06893
650.82892	0.06895
648.76934	0.06880
646.70975	0.06862
644.65016	0.06851
642.59058	0.06850
640.53099	0.06848
638.47141	0.06852
636.41182	0.06874
634.35224	0.06918
632.29265	0.06978
630.23307	0.07047
628.17348	0.07113
626.11390	0.07173
624.05431	0.07234
621.99473	0.07284
619.93514	0.07318
617.87556	0.07338
615.81597	0.07346
613.75639	0.07334
611.69680	0.07298
609.63722	0.07245
607.57763	0.07189
605.51805	0.07126
603.45846	0.07051
601.39888	0.06981
599.33929	0.06938
597.27971	0.06916
595.22012	0.06899
593.16054	0.06876
591.10095	0.06859
589.04136	0.06868
586.98178	0.06893
584.92219	0.06920
582.86261	0.06934
580.80302	0.06938
578.74344	0.06951
576.68385	0.06968
574.62427	0.06985
572.56468	0.07011
570.50510	0.07037
568.44551	0.07066
566.38593	0.07100
564.32634	0.07122
562.26676	0.07137
560.20717	0.07163
558.14759	0.07199
556.08800	0.07239
554.02842	0.07264
551.96883	0.07261
549.90925	0.07249
547.84966	0.07244
545.79008	0.07233
543.73049	0.07203
541.67091	0.07171
539.61132	0.07148
537.55173	0.07126
535.49215	0.07086
533.43256	0.07015
531.37298	0.06939
529.31339	0.06865
527.25381	0.06781
525.19422	0.06727
523.13464	0.06702
521.07505	0.06647
519.01547	0.06562
516.95588	0.06487
514.89630	0.06436
512.83671	0.06399
510.77713	0.06356
508.71754	0.06286
506.65796	0.06212
504.59837	0.06173
502.53879	0.06158
500.47920	0.06124
498.41962	0.06060
496.36003	0.05994
494.30045	0.05950
492.24086	0.05925
490.18128	0.05898
488.12169	0.05852
486.06211	0.05791
484.00252	0.05732
481.94293	0.05691
479.88335	0.05665
477.82376	0.05627
475.76418	0.05574
473.70459	0.05521
471.64501	0.05468
469.58542	0.05424
467.52584	0.05410
465.46625	0.05413
463.40667	0.05393
461.34708	0.05334
459.28750	0.05274
457.22791	0.05253
455.16833	0.05260
453.10874	0.05272
451.04916	0.05305
448.98957	0.05362
446.92999	0.05423
444.87040	0.05463
442.81082	0.05461
440.75123	0.05421
438.69165	0.05364
436.63206	0.05294
434.57248	0.05204
432.51289	0.05095
430.45330	0.04982
428.39372	0.04894
426.33413	0.04847
424.27455	0.04828
422.21496	0.04816
420.15538	0.04789
418.09579	0.04734
416.03621	0.04663
413.97662	0.04596
411.91704	0.04534
409.85745	0.04475
407.79787	0.04414
405.73828	0.04340
403.67870	0.04264
401.61911	0.04198
399.55953	0.04138
