2996.73039,0.16742
2994.67079,0.16419
2992.61118,0.16087
2990.55157,0.15774
2988.49196,0.15500
2986.43235,0.15231
2984.37274,0.14955
2982.31313,0.14677
2980.25353,0.14399
2978.19392,0.14133
2976.13431,0.13868
2974.07470,0.13614
2972.01509,0.13387
2969.95548,0.13164
2967.89587,0.12936
2965.83627,0.12723
2963.77666,0.12518
2961.71705,0.12298
2959.65744,0.12067
2957.59783,0.11823
2955.53822,0.11560
2953.47861,0.11313
2951.41901,0.11088
2949.35940,0.10856
2947.29979,0.10639
2945.24018,0.10439
2943.18057,0.10228
2941.12096,0.10027
2939.06136,0.09854
2937.00175,0.09690
2934.94214,0.09516
2932.88253,0.09332
2930.82292,0.09156
2928.76331,0.09000
2926.70370,0.08846
2924.64410,0.08674
2922.58449,0.08480
2920.52488,0.08290
2918.46527,0.08125
2916.40566,0.07979
2914.34605,0.07831
2912.28644,0.07668
2910.22684,0.07500
2908.16723,0.07353
2906.10762,0.07218
2904.04801,0.07077
2901.98840,0.06942
2899.92879,0.06815
2897.86918,0.06687
2895.80958,0.06567
2893.74997,0.06443
2891.69036,0.06310
2889.63075,0.06178
2887.57114,0.06064
2885.51153,0.05973
2883.45193,0.05885
2881.39232,0.05793
2879.33271,0.05707
2877.27310,0.05629
2875.21349,0.05561
2873.15388,0.05478
2871.09427,0.05361
2869.03467,0.05241
2866.97506,0.05138
2864.91545,0.05042
2862.85584,0.04959
2860.79623,0.04869
2858.73662,0.04757
2856.67701,0.04654
2854.61741,0.04574
2852.55780,0.04505
2850.49819,0.04441
2848.43858,0.04371
2846.37897,0.04290
2844.31936,0.04207
2842.25975,0.04120
2840.20015,0.04025
2838.14054,0.03955
2836.08093,0.03922
2834.02132,0.03881
2831.96171,0.03815
2829.90210,0.03749
2827.84250,0.03691
2825.78289,0.03632
2823.72328,0.03574
2821.66367,0.03536
2819.60406,0.03499
2817.54445,0.03441
2815.48484,0.03383
2813.42524,0.03339
2811.36563,0.03290
2809.30602,0.03230
2807.24641,0.03177
2805.18680,0.03142
2803.12719,0.03120
2801.06758,0.03079
2799.00798,0.03010
2796.94837,0.02955
2794.88876,0.02919
2792.82915,0.02879
2790.76954,0.02842
2788.70993,0.02814
2786.65032,0.02778
2784.59072,0.02732
2782.53111,0.02694
2780.47150,0.02663
2778.41189,0.02628
2776.35228,0.02594
2774.29267,0.02567
2772.23307,0.02541
2770.17346,0.02503
2768.11385,0.02447
2766.05424,0.02395
2763.99463,0.02377
2761.93502,0.02371
2759.87541,0.02343
2757.81581,0.02306
2755.75620,0.02281
2753.69659,0.02260
2751.63698,0.02231
2749.57737,0.02208
2747.51776,0.02199
2745.45815,0.02188
2743.39855,0.02170
2741.33894,0.02139
2739.27933,0.02095
2737.21972,0.02056
2735.16011,0.02039
2733.10050,0.02041
2731.04089,0.02039
2728.98129,0.02017
2726.92168,0.01986
2724.86207,0.01966
2722.80246,0.01957
2720.74285,0.01941
2718.68324,0.01920
2716.62364,0.01917
2714.56403,0.01926
2712.50442,0.01913
2710.44481,0.01881
2708.38520,0.01845
2706.32559,0.01807
2704.26598,0.01778
2702.20638,0.01764
2700.14677,0.01768
2698.08716,0.01771
2696.02755,0.01760
2693.96794,0.01751
2691.90833,0.01748
2689.84872,0.01732
2687.78912,0.01710
2685.72951,0.01701
2683.66990,0.01699
2681.61029,0.01700
2679.55068,0.01699
2677.49107,0.01696
2675.43146,0.01695
2673.37186,0.01688
2671.31225,0.01669
2669.25264,0.01642
2667.19303,0.01620
2665.13342,0.01610
2663.07381,0.01616
2661.01421,0.01632
2658.95460,0.01633
2656.89499,0.01612
2654.83538,0.01589
2652.77577,0.01573
2650.71616,0.01560
2648.65655,0.01561
2646.59695,0.01582
2644.53734,0.01593
2642.47773,0.01563
2640.41812,0.01518
2638.35851,0.01490
2636.29890,0.01488
2634.23929,0.01497
2632.17969,0.01483
2630.12008,0.01457
2628.06047,0.01456
2626.00086,0.01463
2623.94125,0.01445
2621.88164,0.01415
2619.82203,0.01406
2617.76243,0.01417
2615.70282,0.01437
2613.64321,0.01455
2611.58360,0.01461
2609.52399,0.01466
2607.46438,0.01467
2605.40478,0.01461
2603.34517,0.01452
2601.28556,0.01432
2599.22595,0.01409
2597.16634,0.01402
2595.10673,0.01417
2593.04712,0.01437
2590.98752,0.01427
2588.92791,0.01405
2586.86830,0.01409
2584.80869,0.01434
2582.74908,0.01451
2580.68947,0.01447
2578.62986,0.01446
2576.57026,0.01467
2574.51065,0.01489
2572.45104,0.01483
2570.39143,0.01452
2568.33182,0.01410
2566.27221,0.01377
2564.21260,0.01373
2562.15300,0.01376
2560.09339,0.01360
2558.03378,0.01356
2555.97417,0.01397
2553.91456,0.01459
2551.85495,0.01500
2549.79535,0.01527
2547.73574,0.01555
2545.67613,0.01554
2543.61652,0.01537
2541.55691,0.01522
2539.49730,0.01500
2537.43769,0.01493
2535.37809,0.01513
2533.31848,0.01538
2531.25887,0.01536
2529.19926,0.01516
2527.13965,0.01502
2525.08004,0.01505
2523.02043,0.01533
2520.96083,0.01551
2518.90122,0.01537
2516.84161,0.01528
2514.78200,0.01560
2512.72239,0.01578
2510.66278,0.01567
2508.60317,0.01584
2506.54357,0.01606
2504.48396,0.01615
2502.42435,0.01628
2500.36474,0.01630
2498.30513,0.01620
2496.24552,0.01629
2494.18592,0.01657
2492.12631,0.01665
2490.06670,0.01653
2488.00709,0.01644
2485.94748,0.01645
2483.88787,0.01670
2481.82826,0.01716
2479.76866,0.01751
2477.70905,0.01755
2475.64944,0.01733
2473.58983,0.01715
2471.53022,0.01712
2469.47061,0.01712
2467.41100,0.01735
2465.35140,0.01778
2463.29179,0.01807
2461.23218,0.01811
2459.17257,0.01797
2457.11296,0.01778
2455.05335,0.01770
2452.99374,0.01786
2450.93414,0.01811
2448.87453,0.01829
2446.81492,0.01844
2444.75531,0.01846
2442.69570,0.01844
2440.63609,0.01867
2438.57649,0.01895
2436.51688,0.01896
2434.45727,0.01885
2432.39766,0.01885
2430.33805,0.01897
2428.27844,0.01918
2426.21883,0.01938
2424.15923,0.01960
2422.09962,0.01991
2420.04001,0.02008
2417.98040,0.02003
2415.92079,0.02009
2413.86118,0.02020
2411.80157,0.02010
2409.74197,0.02003
2407.68236,0.02026
2405.62275,0.02050
2403.56314,0.02045
2401.50353,0.02031
2399.44392,0.02060
2397.38431,0.02122
2395.32471,0.02154
2393.26510,0.02160
2391.20549,0.02171
2389.14588,0.02189
2387.08627,0.02205
2385.02666,0.02206
2382.96706,0.02205
2380.90745,0.02224
2378.84784,0.02247
2376.78823,0.02266
2374.72862,0.02299
2372.66901,0.02317
2370.60940,0.02285
2368.54980,0.02240
2366.49019,0.02243
2364.43058,0.02289
2362.37097,0.02304
2360.31136,0.02314
2358.25175,0.02377
2356.19214,0.02430
2354.13254,0.02442
2352.07293,0.02467
2350.01332,0.02497
2347.95371,0.02504
2345.89410,0.02503
2343.83449,0.02529
2341.77488,0.02568
2339.71528,0.02583
2337.65567,0.02578
2335.59606,0.02574
2333.53645,0.02584
2331.47684,0.02621
2329.41723,0.02655
2327.35763,0.02661
2325.29802,0.02661
2323.23841,0.02653
2321.17880,0.02636
2319.11919,0.02620
2317.05958,0.02627
2314.99997,0.02684
2312.94037,0.02735
2310.88076,0.02732
2308.82115,0.02737
2306.76154,0.02793
2304.70193,0.02850
2302.64232,0.02853
2300.58271,0.02822
2298.52311,0.02816
2296.46350,0.02837
2294.40389,0.02849
2292.34428,0.02852
2290.28467,0.02852
2288.22506,0.02846
2286.16545,0.02843
2284.10585,0.02859
2282.04624,0.02887
2279.98663,0.02879
2277.92702,0.02819
2275.86741,0.02786
2273.80780,0.02811
2271.74820,0.02837
2269.68859,0.02858
2267.62898,0.02907
2265.56937,0.02976
2263.50976,0.03030
2261.45015,0.03025
2259.39054,0.02984
2257.33094,0.02985
2255.27133,0.03021
2253.21172,0.03049
2251.15211,0.03067
2249.09250,0.03059
2247.03289,0.03033
2244.97328,0.03024
2242.91368,0.03046
2240.85407,0.03094
2238.79446,0.03112
2236.73485,0.03074
2234.67524,0.03056
2232.61563,0.03077
2230.55602,0.03100
2228.49642,0.03137
2226.43681,0.03179
2224.37720,0.03156
2222.31759,0.03090
2220.25798,0.03087
2218.19837,0.03121
2216.13877,0.03124
2214.07916,0.03101
2212.01955,0.03103
2209.95994,0.03169
2207.90033,0.03245
2205.84072,0.03265
2203.78111,0.03237
2201.72151,0.03193
2199.66190,0.03178
2197.60229,0.03213
2195.54268,0.03279
2193.48307,0.03333
2191.42346,0.03306
2189.36385,0.03262
2187.30425,0.03306
2185.24464,0.03337
2183.18503,0.03295
2181.12542,0.03275
2179.06581,0.03284
2177.00620,0.03248
2174.94659,0.03187
2172.88699,0.03151
2170.82738,0.03146
2168.76777,0.03194
2166.70816,0.03315
2164.64855,0.03398
2162.58894,0.03272
2160.52934,0.03030
2158.46973,0.02929
2156.41012,0.03019
2154.35051,0.03175
2152.29090,0.03286
2150.23129,0.03325
2148.17168,0.03344
2146.11208,0.03366
2144.05247,0.03397
2141.99286,0.03461
2139.93325,0.03544
2137.87364,0.03635
2135.81403,0.03705
2133.75442,0.03753
2131.69482,0.03803
2129.63521,0.03852
2127.57560,0.03911
2125.51599,0.03955
2123.45638,0.03949
2121.39677,0.03921
2119.33716,0.03909
2117.27756,0.03913
2115.21795,0.03910
2113.15834,0.03889
2111.09873,0.03847
2109.03912,0.03839
2106.97951,0.03877
2104.91991,0.03866
2102.86030,0.03823
2100.80069,0.03829
2098.74108,0.03849
2096.68147,0.03858
2094.62186,0.03871
2092.56225,0.03838
2090.50265,0.03773
2088.44304,0.03753
2086.38343,0.03776
2084.32382,0.03793
2082.26421,0.03772
2080.20460,0.03699
2078.14499,0.03591
2076.08539,0.03525
2074.02578,0.03537
2071.96617,0.03544
2069.90656,0.03502
2067.84695,0.03464
2065.78734,0.03444
2063.72773,0.03422
2061.66813,0.03407
2059.60852,0.03405
2057.54891,0.03365
2055.48930,0.03290
2053.42969,0.03260
2051.37008,0.03257
2049.31048,0.03213
2047.25087,0.03157
2045.19126,0.03085
2043.13165,0.02989
2041.07204,0.02920
2039.01243,0.02881
2036.95282,0.02854
2034.89322,0.02825
2032.83361,0.02777
2030.77400,0.02677
2028.71439,0.02540
2026.65478,0.02460
2024.59517,0.02482
2022.53556,0.02527
2020.47596,0.02502
2018.41635,0.02433
2016.35674,0.02404
2014.29713,0.02459
2012.23752,0.02527
2010.17791,0.02533
2008.11830,0.02508
2006.05870,0.02464
2003.99909,0.02451
2001.93948,0.02511
1999.87987,0.02552
1997.82026,0.02502
1995.76065,0.02444
1993.70105,0.02447
1991.64144,0.02467
1989.58183,0.02473
1987.52222,0.02465
1985.46261,0.02407
1983.40300,0.02297
1981.34339,0.02194
1979.28379,0.02127
1977.22418,0.02080
1975.16457,0.02033
1973.10496,0.02021
1971.04535,0.02083
1968.98574,0.02193
1966.92613,0.02271
1964.86653,0.02250
1962.80692,0.02163
1960.74731,0.02090
1958.68770,0.02082
1956.62809,0.02132
1954.56848,0.02171
1952.50887,0.02148
1950.44927,0.02108
1948.38966,0.02089
1946.33005,0.02083
1944.27044,0.02124
1942.21083,0.02208
1940.15122,0.02247
1938.09162,0.02230
1936.03201,0.02213
1933.97240,0.02198
1931.91279,0.02192
1929.85318,0.02194
1927.79357,0.02182
1925.73396,0.02181
1923.67436,0.02188
1921.61475,0.02177
1919.55514,0.02165
1917.49553,0.02170
1915.43592,0.02197
1913.37631,0.02221
1911.31670,0.02203
1909.25710,0.02167
1907.19749,0.02149
1905.13788,0.02157
1903.07827,0.02180
1901.01866,0.02186
1898.95905,0.02168
1896.89944,0.02157
1894.83984,0.02171
1892.78023,0.02197
1890.72062,0.02201
1888.66101,0.02186
1886.60140,0.02176
1884.54179,0.02192
1882.48219,0.02213
1880.42258,0.02206
1878.36297,0.02185
1876.30336,0.02173
1874.24375,0.02161
1872.18414,0.02146
1870.12453,0.02146
1868.06493,0.02173
1866.00532,0.02195
1863.94571,0.02200
1861.88610,0.02208
1859.82649,0.02225
1857.76688,0.02244
1855.70727,0.02250
1853.64767,0.02241
1851.58806,0.02232
1849.52845,0.02224
1847.46884,0.02217
1845.40923,0.02229
1843.34962,0.02251
1841.29002,0.02269
1839.23041,0.02283
1837.17080,0.02299
1835.11119,0.02318
1833.05158,0.02329
1830.99197,0.02336
1828.93236,0.02354
1826.87276,0.02379
1824.81315,0.02400
1822.75354,0.02418
1820.69393,0.02429
1818.63432,0.02437
1816.57471,0.02447
1814.51510,0.02471
1812.45550,0.02503
1810.39589,0.02533
1808.33628,0.02567
1806.27667,0.02601
1804.21706,0.02633
1802.15745,0.02654
1800.09784,0.02676
1798.03824,0.02703
1795.97863,0.02729
1793.91902,0.02768
1791.85941,0.02823
1789.79980,0.02857
1787.74019,0.02862
1785.68059,0.02874
1783.62098,0.02907
1781.56137,0.02955
1779.50176,0.03012
1777.44215,0.03074
1775.38254,0.03117
1773.32293,0.03163
1771.26333,0.03242
1769.20372,0.03326
1767.14411,0.03394
1765.08450,0.03449
1763.02489,0.03509
1760.96528,0.03589
1758.90567,0.03671
1756.84607,0.03757
1754.78646,0.03847
1752.72685,0.03945
1750.66724,0.04070
1748.60763,0.04180
1746.54802,0.04268
1744.48841,0.04364
1742.42881,0.04475
1740.36920,0.04611
1738.30959,0.04758
1736.24998,0.04894
1734.19037,0.05077
1732.13076,0.05277
1730.07116,0.05430
1728.01155,0.05609
1725.95194,0.05817
1723.89233,0.06043
1721.83272,0.06263
1719.77311,0.06479
1717.71350,0.06756
1715.65390,0.07101
1713.59429,0.07424
1711.53468,0.07720
1709.47507,0.08018
1707.41546,0.08352
1705.35585,0.08745
1703.29624,0.09118
1701.23664,0.09560
1699.17703,0.10135
1697.11742,0.10659
1695.05781,0.11246
1692.99820,0.11815
1690.93859,0.12340
1688.87898,0.12918
1686.81938,0.13469
1684.75977,0.14203
1682.70016,0.15095
1680.64055,0.15761
1678.58094,0.16349
1676.52133,0.17012
1674.46173,0.17791
1672.40212,0.18514
1670.34251,0.19264
1668.28290,0.20136
1666.22329,0.20861
1664.16368,0.21560
1662.10407,0.22417
1660.04447,0.23229
1657.98486,0.23876
1655.92525,0.24408
1653.86564,0.25125
1651.80603,0.26006
1649.74642,0.26422
1647.68681,0.26753
1645.62721,0.27190
1643.56760,0.27461
1641.50799,0.27594
1639.44838,0.27659
1637.38877,0.27640
1635.32916,0.27541
1633.26955,0.27327
1631.20995,0.26993
1629.15034,0.26550
1627.09073,0.26025
1625.03112,0.25441
1622.97151,0.24756
1620.91190,0.24042
1618.85230,0.23334
1616.79269,0.22475
1614.73308,0.21590
1612.67347,0.20817
1610.61386,0.20028
1608.55425,0.19215
1606.49464,0.18439
1604.43504,0.17714
1602.37543,0.17018
1600.31582,0.16360
1598.25621,0.15761
1596.19660,0.15204
1594.13699,0.14677
1592.07738,0.14195
1590.01778,0.13756
1587.95817,0.13356
1585.89856,0.12992
1583.83895,0.12655
1581.77934,0.12352
1579.71973,0.12085
1577.66012,0.11832
1575.60052,0.11583
1573.54091,0.11383
1571.48130,0.11203
1569.42169,0.11019
1567.36208,0.10869
1565.30247,0.10754
1563.24287,0.10663
1561.18326,0.10592
1559.12365,0.10557
1557.06404,0.10570
1555.00443,0.10587
1552.94482,0.10607
1550.88521,0.10629
1548.82561,0.10636
1546.76600,0.10614
1544.70639,0.10566
1542.64678,0.10483
1540.58717,0.10337
1538.52756,0.10151
1536.46795,0.09967
1534.40835,0.09754
1532.34874,0.09518
1530.28913,0.09313
1528.22952,0.09126
1526.16991,0.08948
1524.11030,0.08790
1522.05069,0.08638
1519.99109,0.08499
1517.93148,0.08377
1515.87187,0.08259
1513.81226,0.08143
1511.75265,0.08017
1509.69304,0.07881
1507.63344,0.07735
1505.57383,0.07606
1503.51422,0.07519
1501.45461,0.07437
1499.39500,0.07345
1497.33539,0.07254
1495.27578,0.07180
1493.21618,0.07119
1491.15657,0.07053
1489.09696,0.06984
1487.03735,0.06929
1484.97774,0.06885
1482.91813,0.06846
1480.85852,0.06810
1478.79892,0.06780
1476.73931,0.06766
1474.67970,0.06770
1472.62009,0.06779
1470.56048,0.06780
1468.50087,0.06766
1466.44126,0.06749
1464.38166,0.06753
1462.32205,0.06766
1460.26244,0.06758
1458.20283,0.06733
1456.14322,0.06716
1454.08361,0.06699
1452.02401,0.06670
1449.96440,0.06643
1447.90479,0.06626
1445.84518,0.06607
1443.78557,0.06581
1441.72596,0.06552
1439.66635,0.06519
1437.60675,0.06488
1435.54714,0.06467
1433.48753,0.06447
1431.42792,0.06425
1429.36831,0.06408
1427.30870,0.06393
1425.24909,0.06378
1423.18949,0.06369
1421.12988,0.06362
1419.07027,0.06363
1417.01066,0.06373
1414.95105,0.06367
1412.89144,0.06348
1410.83183,0.06323
1408.77223,0.06294
1406.71262,0.06266
1404.65301,0.06252
1402.59340,0.06249
1400.53379,0.06248
1398.47418,0.06250
1396.41458,0.06238
1394.35497,0.06204
1392.29536,0.06165
1390.23575,0.06132
1388.17614,0.06111
1386.11653,0.06100
1384.05692,0.06081
1381.99732,0.06051
1379.93771,0.06023
1377.87810,0.05995
1375.81849,0.05963
1373.75888,0.05946
1371.69927,0.05948
1369.63966,0.05952
1367.58006,0.05940
1365.52045,0.05915
1363.46084,0.05893
1361.40123,0.05880
1359.34162,0.05867
1357.28201,0.05852
1355.22240,0.05839
1353.16280,0.05830
1351.10319,0.05824
1349.04358,0.05828
1346.98397,0.05842
1344.92436,0.05855
1342.86475,0.05859
1340.80515,0.05859
1338.74554,0.05862
1336.68593,0.05860
1334.62632,0.05840
1332.56671,0.05809
1330.50710,0.05788
1328.44749,0.05780
1326.38789,0.05771
1324.32828,0.05761
1322.26867,0.05755
1320.20906,0.05752
1318.14945,0.05751
1316.08984,0.05750
1314.03023,0.05748
1311.97063,0.05740
1309.91102,0.05729
1307.85141,0.05717
1305.79180,0.05706
1303.73219,0.05700
1301.67258,0.05691
1299.61297,0.05682
1297.55337,0.05677
1295.49376,0.05667
1293.43415,0.05655
1291.37454,0.05644
1289.31493,0.05637
1287.25532,0.05631
1285.19572,0.05628
1283.13611,0.05625
1281.07650,0.05620
1279.01689,0.05612
1276.95728,0.05607
1274.89767,0.05605
1272.83806,0.05607
1270.77846,0.05609
1268.71885,0.05601
1266.65924,0.05586
1264.59963,0.05573
1262.54002,0.05566
1260.48041,0.05557
1258.42080,0.05545
1256.36120,0.05538
1254.30159,0.05535
1252.24198,0.05528
1250.18237,0.05516
1248.12276,0.05501
1246.06315,0.05489
1244.00354,0.05474
1241.94394,0.05454
1239.88433,0.05438
1237.82472,0.05431
1235.76511,0.05423
1233.70550,0.05404
1231.64589,0.05371
1229.58629,0.05334
1227.52668,0.05304
1225.46707,0.05278
1223.40746,0.05255
1221.34785,0.05237
1219.28824,0.05212
1217.22863,0.05182
1215.16903,0.05159
1213.10942,0.05147
1211.04981,0.05140
1208.99020,0.05130
1206.93059,0.05117
1204.87098,0.05106
1202.81137,0.05102
1200.75177,0.05097
1198.69216,0.05086
1196.63255,0.05074
1194.57294,0.05063
1192.51333,0.05050
1190.45372,0.05036
1188.39411,0.05026
1186.33451,0.05017
1184.27490,0.05010
1182.21529,0.05005
1180.15568,0.04995
1178.09607,0.04987
1176.03646,0.04986
1173.97686,0.04982
1171.91725,0.04972
1169.85764,0.04960
1167.79803,0.04948
1165.73842,0.04938
1163.67881,0.04928
1161.61920,0.04916
1159.55960,0.04902
1157.49999,0.04887
1155.44038,0.04870
1153.38077,0.04854
1151.32116,0.04840
1149.26155,0.04833
1147.20194,0.04833
1145.14234,0.04832
1143.08273,0.04819
1141.02312,0.04804
1138.96351,0.04797
1136.90390,0.04796
1134.84429,0.04795
1132.78468,0.04794
1130.72508,0.04793
1128.66547,0.04793
1126.60586,0.04789
1124.54625,0.04775
1122.48664,0.04761
1120.42703,0.04754
1118.36743,0.04751
1116.30782,0.04753
1114.24821,0.04759
1112.18860,0.04761
1110.12899,0.04755
1108.06938,0.04750
1106.00977,0.04747
1103.95017,0.04740
1101.89056,0.04737
1099.83095,0.04735
1097.77134,0.04724
1095.71173,0.04711
1093.65212,0.04707
1091.59251,0.04711
1089.53291,0.04713
1087.47330,0.04714
1085.41369,0.04716
1083.35408,0.04718
1081.29447,0.04717
1079.23486,0.04706
1077.17525,0.04686
1075.11565,0.04678
1073.05604,0.04684
1070.99643,0.04685
1068.93682,0.04678
1066.87721,0.04670
1064.81760,0.04665
1062.75800,0.04664
1060.69839,0.04673
1058.63878,0.04679
1056.57917,0.04677
1054.51956,0.04674
1052.45995,0.04675
1050.40034,0.04676
1048.34074,0.04675
1046.28113,0.04677
1044.22152,0.04683
1042.16191,0.04689
1040.10230,0.04691
1038.04269,0.04689
1035.98308,0.04692
1033.92348,0.04699
1031.86387,0.04702
1029.80426,0.04707
1027.74465,0.04720
1025.68504,0.04734
1023.62543,0.04749
1021.56582,0.04766
1019.50622,0.04782
1017.44661,0.04789
1015.38700,0.04791
1013.32739,0.04800
1011.26778,0.04818
1009.20817,0.04835
1007.14857,0.04850
1005.08896,0.04869
1003.02935,0.04885
1000.96974,0.04894
998.91013,0.04904
996.85052,0.04923
994.79091,0.04948
992.73131,0.04971
990.67170,0.04995
988.61209,0.05024
986.55248,0.05052
984.49287,0.05075
982.43326,0.05097
980.37365,0.05122
978.31405,0.05160
976.25444,0.05206
974.19483,0.05247
972.13522,0.05279
970.07561,0.05314
968.01600,0.05353
965.95639,0.05391
963.89679,0.05432
961.83718,0.05479
959.77757,0.05526
957.71796,0.05569
955.65835,0.05616
953.59874,0.05665
951.53914,0.05718
949.47953,0.05775
947.41992,0.05837
945.36031,0.05901
943.30070,0.05965
941.24109,0.06034
939.18148,0.06110
937.12188,0.06189
935.06227,0.06262
933.00266,0.06326
930.94305,0.06391
928.88344,0.06465
926.82383,0.06543
924.76422,0.06628
922.70462,0.06714
920.64501,0.06797
918.58540,0.06888
916.52579,0.06990
914.46618,0.07097
912.40657,0.07202
910.34696,0.07301
908.28736,0.07397
906.22775,0.07498
904.16814,0.07602
902.10853,0.07706
900.04892,0.07816
897.98931,0.07933
895.92971,0.08049
893.87010,0.08167
891.81049,0.08286
889.75088,0.08410
887.69127,0.08547
885.63166,0.08685
883.57205,0.08815
881.51245,0.08938
879.45284,0.09066
877.39323,0.09210
875.33362,0.09355
873.27401,0.09481
871.21440,0.09597
869.15479,0.09721
867.09519,0.09859
865.03558,0.10012
862.97597,0.10170
860.91636,0.10321
858.85675,0.10470
856.79714,0.10624
854.73753,0.10773
852.67793,0.10908
850.61832,0.11050
848.55871,0.11215
846.49910,0.11376
844.43949,0.11519
842.37988,0.11667
840.32028,0.11829
838.26067,0.11991
836.20106,0.12145
834.14145,0.12291
832.08184,0.12436
830.02223,0.12579
827.96262,0.12725
825.90302,0.12878
823.84341,0.13030
821.78380,0.13178
819.72419,0.13331
817.66458,0.13488
815.60497,0.13637
813.54536,0.13784
811.48576,0.13940
809.42615,0.14098
807.36654,0.14250
805.30693,0.14408
803.24732,0.14567
801.18771,0.14712
799.12810,0.14853
