3997.70013,0.01139
3995.64052,0.01120
3993.58092,0.01174
3991.52131,0.01260
3989.46170,0.01269
3987.40209,0.01231
3985.34248,0.01248
3983.28287,0.01312
3981.22327,0.01334
3979.16366,0.01285
3977.10405,0.01214
3975.04444,0.01170
3972.98483,0.01170
3970.92522,0.01211
3968.86561,0.01255
3966.80601,0.01267
3964.74640,0.01273
3962.68679,0.01256
3960.62718,0.01206
3958.56757,0.01222
3956.50796,0.01276
3954.44835,0.01268
3952.38875,0.01246
3950.32914,0.01250
3948.26953,0.01250
3946.20992,0.01264
3944.15031,0.01306
3942.09070,0.01330
3940.03109,0.01317
3937.97149,0.01293
3935.91188,0.01288
3933.85227,0.01287
3931.79266,0.01297
3929.73305,0.01371
3927.67344,0.01422
3925.61384,0.01350
3923.55423,0.01222
3921.49462,0.01156
3919.43501,0.01157
3917.37540,0.01157
3915.31579,0.01169
3913.25618,0.01184
3911.19658,0.01167
3909.13697,0.01161
3907.07736,0.01175
3905.01775,0.01156
3902.95814,0.01123
3900.89853,0.01183
3898.83892,0.01317
3896.77932,0.01365
3894.71971,0.01315
3892.66010,0.01321
3890.60049,0.01403
3888.54088,0.01399
3886.48127,0.01325
3884.42166,0.01252
3882.36206,0.01175
3880.30245,0.01126
3878.24284,0.01146
3876.18323,0.01199
3874.12362,0.01216
3872.06401,0.01165
3870.00441,0.01123
3867.94480,0.01137
3865.88519,0.01111
3863.82558,0.01087
3861.76597,0.01147
3859.70636,0.01222
3857.64675,0.01290
3855.58715,0.01346
3853.52754,0.01328
3851.46793,0.01318
3849.40832,0.01359
3847.34871,0.01373
3845.28910,0.01333
3843.22949,0.01248
3841.16989,0.01196
3839.11028,0.01169
3837.05067,0.01151
3834.99106,0.01228
3832.93145,0.01354
3830.87184,0.01404
3828.81223,0.01333
3826.75263,0.01259
3824.69302,0.01280
3822.63341,0.01350
3820.57380,0.01381
3818.51419,0.01337
3816.45458,0.01306
3814.39498,0.01362
3812.33537,0.01434
3810.27576,0.01454
3808.21615,0.01426
3806.15654,0.01395
3804.09693,0.01411
3802.03732,0.01473
3799.97772,0.01513
3797.91811,0.01496
3795.85850,0.01502
3793.79889,0.01548
3791.73928,0.01587
3789.67967,0.01630
3787.62006,0.01636
3785.56046,0.01562
3783.50085,0.01507
3781.44124,0.01580
3779.38163,0.01692
3777.32202,0.01690
3775.26241,0.01642
3773.20280,0.01678
3771.14320,0.01791
3769.08359,0.01886
3767.02398,0.01919
3764.96437,0.01907
3762.90476,0.01867
3760.84515,0.01837
3758.78555,0.01850
3756.72594,0.01913
3754.66633,0.02011
3752.60672,0.02112
3750.54711,0.02170
3748.48750,0.02124
3746.42789,0.02045
3744.36829,0.02064
3742.30868,0.02182
3740.24907,0.02311
3738.18946,0.02397
3736.12985,0.02428
3734.07024,0.02529
3732.01063,0.02653
3729.95103,0.02648
3727.89142,0.02604
3725.83181,0.02583
3723.77220,0.02597
3721.71259,0.02727
3719.65298,0.02931
3717.59337,0.03074
3715.53377,0.03187
3713.47416,0.03357
3711.41455,0.03531
3709.35494,0.03657
3707.29533,0.03773
3705.23572,0.03909
3703.17612,0.04100
3701.11651,0.04360
3699.05690,0.04624
3696.99729,0.04887
3694.93768,0.05161
3692.87807,0.05427
3690.81846,0.05713
3688.75886,0.06045
3686.69925,0.06454
3684.63964,0.06924
3682.58003,0.07409
3680.52042,0.07854
3678.46081,0.08263
3676.40120,0.08777
3674.34160,0.09425
3672.28199,0.10004
3670.22238,0.10675
3668.16277,0.11441
3666.10316,0.12067
3664.04355,0.12642
3661.98394,0.13239
3659.92434,0.13882
3657.86473,0.14606
3655.80512,0.15384
3653.74551,0.16020
3651.68590,0.16579
3649.62629,0.17359
3647.56669,0.18223
3645.50708,0.18851
3643.44747,0.19367
3641.38786,0.19943
3639.32825,0.20571
3637.26864,0.21174
3635.20903,0.21773
3633.14943,0.22376
3631.08982,0.22977
3629.03021,0.23731
3626.97060,0.24457
3624.91099,0.24950
3622.85138,0.25441
3620.79177,0.26053
3618.73217,0.26758
3616.67256,0.27408
3614.61295,0.27940
3612.55334,0.28356
3610.49373,0.28797
3608.43412,0.29463
3606.37451,0.30164
3604.31491,0.30693
3602.25530,0.31192
3600.19569,0.31779
3598.13608,0.32437
3596.07647,0.33086
3594.01686,0.33656
3591.95726,0.34122
3589.89765,0.34568
3587.83804,0.35232
3585.77843,0.36018
3583.71882,0.36591
3581.65921,0.37093
3579.59960,0.37731
3577.54000,0.38427
3575.48039,0.39076
3573.42078,0.39667
3571.36117,0.40198
3569.30156,0.40772
3567.24195,0.41532
3565.18234,0.42321
3563.12274,0.43005
3561.06313,0.43704
3559.00352,0.44420
3556.94391,0.45093
3554.88430,0.45758
3552.82469,0.46477
3550.76508,0.47196
3548.70548,0.47856
3546.64587,0.48549
3544.58626,0.49322
3542.52665,0.50058
3540.46704,0.50754
3538.40743,0.51501
3536.34783,0.52251
3534.28822,0.52968
3532.22861,0.53675
3530.16900,0.54388
3528.10939,0.55106
3526.04978,0.55844
3523.99017,0.56643
3521.93057,0.57462
3519.87096,0.58214
3517.81135,0.58930
3515.75174,0.59646
3513.69213,0.60348
3511.63252,0.61083
3509.57291,0.61885
3507.51331,0.62660
3505.45370,0.63366
3503.39409,0.64157
3501.33448,0.65029
3499.27487,0.65823
3497.21526,0.66589
3495.15565,0.67400
3493.09605,0.68145
3491.03644,0.68845
3488.97683,0.69600
3486.91722,0.70376
3484.85761,0.71146
3482.79800,0.71929
3480.73840,0.72723
3478.67879,0.73538
3476.61918,0.74397
3474.55957,0.75241
3472.49996,0.75978
3470.44035,0.76625
3468.38074,0.77310
3466.32114,0.78117
3464.26153,0.79016
3462.20192,0.79892
3460.14231,0.80676
3458.08270,0.81443
3456.02309,0.82270
3453.96348,0.83115
3451.90388,0.83922
3449.84427,0.84741
3447.78466,0.85594
3445.72505,0.86439
3443.66544,0.87234
3441.60583,0.88048
3439.54622,0.88915
3437.48662,0.89772
3435.42701,0.90593
3433.36740,0.91350
3431.30779,0.92071
3429.24818,0.92817
3427.18857,0.93602
3425.12897,0.94426
3423.06936,0.95234
3421.00975,0.95968
3418.95014,0.96697
3416.89053,0.97418
3414.83092,0.98128
3412.77131,0.98846
3410.71171,0.99525
3408.65210,1.00200
3406.59249,1.00934
3404.53288,1.01656
3402.47327,1.02256
3400.41366,1.02790
3398.35405,1.03386
3396.29445,1.04050
3394.23484,1.04695
3392.17523,1.05295
3390.11562,1.05866
3388.05601,1.06402
3385.99640,1.06848
3383.93679,1.07236
3381.87719,1.07651
3379.81758,1.08058
3377.75797,1.08450
3375.69836,1.08872
3373.63875,1.09240
3371.57914,1.09406
3369.51954,1.09516
3367.45993,1.09791
3365.40032,1.10153
3363.34071,1.10473
3361.28110,1.10761
3359.22149,1.11004
3357.16188,1.11183
3355.10228,1.11312
3353.04267,1.11394
3350.98306,1.11431
3348.92345,1.11477
3346.86384,1.11605
3344.80423,1.11752
3342.74462,1.11831
3340.68502,1.11854
3338.62541,1.11827
3336.56580,1.11751
3334.50619,1.11734
3332.44658,1.11791
3330.38697,1.11852
3328.32736,1.11926
3326.26776,1.11959
3324.20815,1.11914
3322.14854,1.11853
3320.08893,1.11790
3318.02932,1.11708
3315.96971,1.11596
3313.91011,1.11471
3311.85050,1.11384
3309.79089,1.11305
3307.73128,1.11186
3305.67167,1.11061
3303.61206,1.10964
3301.55245,1.10926
3299.49285,1.10938
3297.43324,1.10876
3295.37363,1.10754
3293.31402,1.10678
3291.25441,1.10594
3289.19480,1.10508
3287.13519,1.10515
3285.07559,1.10544
3283.01598,1.10450
3280.95637,1.10259
3278.89676,1.10150
3276.83715,1.10144
3274.77754,1.10113
3272.71793,1.09996
3270.65833,1.09860
3268.59872,1.09789
3266.53911,1.09726
3264.47950,1.09587
3262.41989,1.09364
3260.36028,1.09117
3258.30068,1.08938
3256.24107,1.08810
3254.18146,1.08673
3252.12185,1.08469
3250.06224,1.08233
3248.00263,1.08044
3245.94302,1.07823
3243.88342,1.07498
3241.82381,1.07177
3239.76420,1.06974
3237.70459,1.06772
3235.64498,1.06373
3233.58537,1.05841
3231.52576,1.05381
3229.46616,1.05023
3227.40655,1.04702
3225.34694,1.04307
3223.28733,1.03772
3221.22772,1.03204
3219.16811,1.02646
3217.10850,1.02032
3215.04890,1.01394
3212.98929,1.00779
3210.92968,1.00137
3208.87007,0.99450
3206.81046,0.98758
3204.75085,0.98059
3202.69125,0.97341
3200.63164,0.96612
3198.57203,0.95838
3196.51242,0.94972
3194.45281,0.94059
3192.39320,0.93155
3190.33359,0.92284
3188.27399,0.91451
3186.21438,0.90588
3184.15477,0.89612
3182.09516,0.88530
3180.03555,0.87448
3177.97594,0.86442
3175.91633,0.85476
3173.85673,0.84487
3171.79712,0.83459
3169.73751,0.82419
3167.67790,0.81370
3165.61829,0.80317
3163.55868,0.79273
3161.49907,0.78209
3159.43947,0.77105
3157.37986,0.75980
3155.32025,0.74864
3153.26064,0.73785
3151.20103,0.72722
3149.14142,0.71651
3147.08182,0.70590
3145.02221,0.69509
3142.96260,0.68366
3140.90299,0.67198
3138.84338,0.66101
3136.78377,0.65071
3134.72416,0.64008
3132.66456,0.62905
3130.60495,0.61858
3128.54534,0.60879
3126.48573,0.59890
3124.42612,0.58866
3122.36651,0.57860
3120.30690,0.56845
3118.24730,0.55778
3116.18769,0.54727
3114.12808,0.53742
3112.06847,0.52799
3110.00886,0.51865
3107.94925,0.50935
3105.88965,0.50013
3103.83004,0.49084
3101.77043,0.48160
3099.71082,0.47282
3097.65121,0.46428
3095.59160,0.45533
3093.53199,0.44633
3091.47239,0.43764
3089.41278,0.42902
3087.35317,0.42076
3085.29356,0.41291
3083.23395,0.40508
3081.17434,0.39716
3079.11473,0.38925
3077.05513,0.38138
3074.99552,0.37336
3072.93591,0.36547
3070.87630,0.35823
3068.81669,0.35153
3066.75708,0.34506
3064.69747,0.33860
3062.63787,0.33198
3060.57826,0.32512
3058.51865,0.31814
3056.45904,0.31136
3054.39943,0.30508
3052.33982,0.29880
3050.28022,0.29239
3048.22061,0.28653
3046.16100,0.28113
3044.10139,0.27563
3042.04178,0.26981
3039.98217,0.26395
3037.92256,0.25835
3035.86296,0.25291
3033.80335,0.24792
3031.74374,0.24331
3029.68413,0.23858
3027.62452,0.23373
3025.56491,0.22875
3023.50530,0.22394
3021.44570,0.21965
3019.38609,0.21545
3017.32648,0.21106
3015.26687,0.20662
3013.20726,0.20210
3011.14765,0.19771
3009.08804,0.19373
3007.02844,0.18981
3004.96883,0.18584
3002.90922,0.18216
3000.84961,0.17843
2998.79000,0.17447
2996.73039,0.17085
2994.67079,0.16743
2992.61118,0.16382
2990.55157,0.16023
2988.49196,0.15703
2986.43235,0.15414
2984.37274,0.15121
2982.31313,0.14821
2980.25353,0.14520
2978.19392,0.14235
2976.13431,0.13970
2974.07470,0.13714
2972.01509,0.13465
2969.95548,0.13211
2967.89587,0.12918
2965.83627,0.12605
2963.77666,0.12331
2961.71705,0.12101
2959.65744,0.11881
2957.59783,0.11646
2955.53822,0.11402
2953.47861,0.11155
2951.41901,0.10903
2949.35940,0.10671
2947.29979,0.10483
2945.24018,0.10295
2943.18057,0.10077
2941.12096,0.09896
2939.06136,0.09740
2937.00175,0.09556
2934.94214,0.09371
2932.88253,0.09200
2930.82292,0.09049
2928.76331,0.08892
2926.70370,0.08693
2924.64410,0.08496
2922.58449,0.08328
2920.52488,0.08171
2918.46527,0.08008
2916.40566,0.07833
2914.34605,0.07664
2912.28644,0.07505
2910.22684,0.07342
2908.16723,0.07189
2906.10762,0.07053
2904.04801,0.06937
2901.98840,0.06832
2899.92879,0.06711
2897.86918,0.06593
2895.80958,0.06485
2893.74997,0.06356
2891.69036,0.06220
2889.63075,0.06114
2887.57114,0.06028
2885.51153,0.05908
2883.45193,0.05755
2881.39232,0.05633
2879.33271,0.05556
2877.27310,0.05491
2875.21349,0.05415
2873.15388,0.05312
2871.09427,0.05201
2869.03467,0.05109
2866.97506,0.05022
2864.91545,0.04935
2862.85584,0.04855
2860.79623,0.04762
2858.73662,0.04659
2856.67701,0.04580
2854.61741,0.04517
2852.55780,0.04453
2850.49819,0.04394
2848.43858,0.04320
2846.37897,0.04205
2844.31936,0.04098
2842.25975,0.04026
2840.20015,0.03956
2838.14054,0.03898
2836.08093,0.03850
2834.02132,0.03798
2831.96171,0.03756
2829.90210,0.03698
2827.84250,0.03610
2825.78289,0.03517
2823.72328,0.03429
2821.66367,0.03383
2819.60406,0.03370
2817.54445,0.03342
2815.48484,0.03304
2813.42524,0.03255
2811.36563,0.03185
2809.30602,0.03125
2807.24641,0.03089
2805.18680,0.03057
2803.12719,0.03018
2801.06758,0.02974
2799.00798,0.02932
2796.94837,0.02887
2794.88876,0.02844
2792.82915,0.02815
2790.76954,0.02799
2788.70993,0.02775
2786.65032,0.02729
2784.59072,0.02681
2782.53111,0.02647
2780.47150,0.02618
2778.41189,0.02588
2776.35228,0.02552
2774.29267,0.02502
2772.23307,0.02454
2770.17346,0.02420
2768.11385,0.02389
2766.05424,0.02358
2763.99463,0.02335
2761.93502,0.02318
2759.87541,0.02287
2757.81581,0.02247
2755.75620,0.02223
2753.69659,0.02211
2751.63698,0.02202
2749.57737,0.02194
2747.51776,0.02175
2745.45815,0.02132
2743.39855,0.02091
2741.33894,0.02072
2739.27933,0.02067
2737.21972,0.02054
2735.16011,0.02036
2733.10050,0.02009
2731.04089,0.01969
2728.98129,0.01938
2726.92168,0.01932
2724.86207,0.01934
2722.80246,0.01921
2720.74285,0.01905
2718.68324,0.01906
2716.62364,0.01892
2714.56403,0.01851
2712.50442,0.01817
2710.44481,0.01792
2708.38520,0.01774
2706.32559,0.01765
2704.26598,0.01745
2702.20638,0.01731
2700.14677,0.01722
2698.08716,0.01694
2696.02755,0.01673
2693.96794,0.01674
2691.90833,0.01675
2689.84872,0.01665
2687.78912,0.01646
2685.72951,0.01637
2683.66990,0.01645
2681.61029,0.01653
2679.55068,0.01653
2677.49107,0.01644
2675.43146,0.01624
2673.37186,0.01605
2671.31225,0.01589
2669.25264,0.01578
2667.19303,0.01589
2665.13342,0.01605
2663.07381,0.01602
2661.01421,0.01585
2658.95460,0.01550
2656.89499,0.01525
2654.83538,0.01550
2652.77577,0.01578
2650.71616,0.01563
2648.65655,0.01539
2646.59695,0.01533
2644.53734,0.01551
2642.47773,0.01588
2640.41812,0.01601
2638.35851,0.01550
2636.29890,0.01479
2634.23929,0.01444
2632.17969,0.01452
2630.12008,0.01483
2628.06047,0.01512
2626.00086,0.01518
2623.94125,0.01491
2621.88164,0.01473
2619.82203,0.01499
2617.76243,0.01509
2615.70282,0.01453
2613.64321,0.01391
2611.58360,0.01381
2609.52399,0.01401
2607.46438,0.01402
2605.40478,0.01411
2603.34517,0.01447
2601.28556,0.01447
2599.22595,0.01417
2597.16634,0.01423
2595.10673,0.01447
2593.04712,0.01441
2590.98752,0.01403
2588.92791,0.01383
2586.86830,0.01391
2584.80869,0.01382
2582.74908,0.01363
2580.68947,0.01378
2578.62986,0.01418
2576.57026,0.01442
2574.51065,0.01449
2572.45104,0.01461
2570.39143,0.01485
2568.33182,0.01511
2566.27221,0.01521
2564.21260,0.01506
2562.15300,0.01476
2560.09339,0.01445
2558.03378,0.01431
2555.97417,0.01459
2553.91456,0.01506
2551.85495,0.01529
2549.79535,0.01553
2547.73574,0.01562
2545.67613,0.01520
2543.61652,0.01492
2541.55691,0.01502
2539.49730,0.01502
2537.43769,0.01478
2535.37809,0.01467
2533.31848,0.01509
2531.25887,0.01542
2529.19926,0.01510
2527.13965,0.01487
2525.08004,0.01519
2523.02043,0.01551
2520.96083,0.01555
2518.90122,0.01548
2516.84161,0.01545
2514.78200,0.01576
2512.72239,0.01635
2510.66278,0.01668
2508.60317,0.01663
2506.54357,0.01660
2504.48396,0.01672
2502.42435,0.01662
2500.36474,0.01624
2498.30513,0.01583
2496.24552,0.01550
2494.18592,0.01573
2492.12631,0.01636
2490.06670,0.01674
2488.00709,0.01695
2485.94748,0.01708
2483.88787,0.01694
2481.82826,0.01682
2479.76866,0.01703
2477.70905,0.01732
2475.64944,0.01742
2473.58983,0.01741
2471.53022,0.01739
2469.47061,0.01713
2467.41100,0.01681
2465.35140,0.01698
2463.29179,0.01755
2461.23218,0.01817
2459.17257,0.01849
2457.11296,0.01835
2455.05335,0.01824
2452.99374,0.01838
2450.93414,0.01822
2448.87453,0.01796
2446.81492,0.01813
2444.75531,0.01861
2442.69570,0.01897
2440.63609,0.01913
2438.57649,0.01928
2436.51688,0.01948
2434.45727,0.01958
2432.39766,0.01935
2430.33805,0.01895
2428.27844,0.01891
2426.21883,0.01960
2424.15923,0.02055
2422.09962,0.02095
2420.04001,0.02077
2417.98040,0.02036
2415.92079,0.02017
2413.86118,0.02059
2411.80157,0.02113
2409.74197,0.02123
2407.68236,0.02123
2405.62275,0.02140
2403.56314,0.02161
2401.50353,0.02164
2399.44392,0.02149
2397.38431,0.02160
2395.32471,0.02196
2393.26510,0.02209
2391.20549,0.02208
2389.14588,0.02212
2387.08627,0.02209
2385.02666,0.02230
2382.96706,0.02281
2380.90745,0.02322
2378.84784,0.02342
2376.78823,0.02335
2374.72862,0.02312
2372.66901,0.02287
2370.60940,0.02255
2368.54980,0.02277
2366.49019,0.02364
2364.43058,0.02423
2362.37097,0.02456
2360.31136,0.02496
2358.25175,0.02527
2356.19214,0.02548
2354.13254,0.02549
2352.07293,0.02560
2350.01332,0.02582
2347.95371,0.02596
2345.89410,0.02625
2343.83449,0.02644
2341.77488,0.02626
2339.71528,0.02608
2337.65567,0.02600
2335.59606,0.02609
2333.53645,0.02643
2331.47684,0.02668
2329.41723,0.02687
2327.35763,0.02737
2325.29802,0.02810
2323.23841,0.02845
2321.17880,0.02811
2319.11919,0.02767
2317.05958,0.02768
2314.99997,0.02799
2312.94037,0.02836
2310.88076,0.02881
2308.82115,0.02912
2306.76154,0.02890
2304.70193,0.02852
2302.64232,0.02850
2300.58271,0.02864
2298.52311,0.02892
2296.46350,0.02943
2294.40389,0.02983
2292.34428,0.02986
2290.28467,0.02988
2288.22506,0.03010
2286.16545,0.03017
2284.10585,0.02994
2282.04624,0.02951
2279.98663,0.02937
2277.92702,0.02981
2275.86741,0.03025
2273.80780,0.03062
2271.74820,0.03112
2269.68859,0.03136
2267.62898,0.03132
2265.56937,0.03114
2263.50976,0.03063
2261.45015,0.02991
2259.39054,0.02959
2257.33094,0.02986
2255.27133,0.03029
2253.21172,0.03064
2251.15211,0.03103
2249.09250,0.03168
2247.03289,0.03219
2244.97328,0.03208
2242.91368,0.03210
2240.85407,0.03235
2238.79446,0.03200
2236.73485,0.03159
2234.67524,0.03201
2232.61563,0.03275
2230.55602,0.03317
2228.49642,0.03317
2226.43681,0.03239
2224.37720,0.03172
2222.31759,0.03232
2220.25798,0.03320
2218.19837,0.03370
2216.13877,0.03425
2214.07916,0.03446
2212.01955,0.03415
2209.95994,0.03386
2207.90033,0.03346
2205.84072,0.03269
2203.78111,0.03197
2201.72151,0.03219
2199.66190,0.03351
2197.60229,0.03429
2195.54268,0.03386
2193.48307,0.03381
2191.42346,0.03453
2189.36385,0.03448
2187.30425,0.03383
2185.24464,0.03393
2183.18503,0.03413
2181.12542,0.03391
2179.06581,0.03401
2177.00620,0.03443
2174.94659,0.03472
2172.88699,0.03520
2170.82738,0.03575
2168.76777,0.03541
2166.70816,0.03443
2164.64855,0.03372
2162.58894,0.03306
2160.52934,0.03267
2158.46973,0.03326
2156.41012,0.03428
2154.35051,0.03508
2152.29090,0.03565
2150.23129,0.03598
2148.17168,0.03630
2146.11208,0.03689
2144.05247,0.03725
2141.99286,0.03738
2139.93325,0.03806
2137.87364,0.03869
2135.81403,0.03838
2133.75442,0.03815
2131.69482,0.03896
2129.63521,0.04005
2127.57560,0.04034
2125.51599,0.04000
2123.45638,0.03995
2121.39677,0.04011
2119.33716,0.03999
2117.27756,0.03987
2115.21795,0.04006
2113.15834,0.04050
2111.09873,0.04089
2109.03912,0.04086
2106.97951,0.04045
2104.91991,0.04019
2102.86030,0.04003
2100.80069,0.03983
2098.74108,0.03989
2096.68147,0.03983
2094.62186,0.03943
2092.56225,0.03924
2090.50265,0.03925
2088.44304,0.03914
2086.38343,0.03913
2084.32382,0.03906
2082.26421,0.03882
2080.20460,0.03872
2078.14499,0.03824
2076.08539,0.03718
2074.02578,0.03626
2071.96617,0.03620
2069.90656,0.03667
2067.84695,0.03680
2065.78734,0.03656
2063.72773,0.03592
2061.66813,0.03494
2059.60852,0.03414
2057.54891,0.03409
2055.48930,0.03413
2053.42969,0.03333
2051.37008,0.03291
2049.31048,0.03338
2047.25087,0.03326
2045.19126,0.03244
2043.13165,0.03142
2041.07204,0.03060
2039.01243,0.03050
2036.95282,0.03026
2034.89322,0.02975
2032.83361,0.02962
2030.77400,0.02924
2028.71439,0.02821
2026.65478,0.02747
2024.59517,0.02749
2022.53556,0.02752
2020.47596,0.02697
2018.41635,0.02623
2016.35674,0.02631
2014.29713,0.02675
2012.23752,0.02637
2010.17791,0.02569
2008.11830,0.02546
2006.05870,0.02555
2003.99909,0.02595
2001.93948,0.02650
1999.87987,0.02673
1997.82026,0.02629
1995.76065,0.02584
1993.70105,0.02564
1991.64144,0.02514
1989.58183,0.02463
1987.52222,0.02417
1985.46261,0.02361
1983.40300,0.02306
1981.34339,0.02257
1979.28379,0.02203
1977.22418,0.02162
1975.16457,0.02192
1973.10496,0.02192
1971.04535,0.02110
1968.98574,0.02090
1966.92613,0.02162
1964.86653,0.02221
1962.80692,0.02216
1960.74731,0.02186
1958.68770,0.02191
1956.62809,0.02225
1954.56848,0.02234
1952.50887,0.02221
1950.44927,0.02228
1948.38966,0.02230
1946.33005,0.02203
1944.27044,0.02197
1942.21083,0.02227
1940.15122,0.02275
1938.09162,0.02327
1936.03201,0.02342
1933.97240,0.02327
1931.91279,0.02304
1929.85318,0.02269
1927.79357,0.02240
1925.73396,0.02233
1923.67436,0.02254
1921.61475,0.02290
1919.55514,0.02312
1917.49553,0.02302
1915.43592,0.02274
1913.37631,0.02261
1911.31670,0.02263
1909.25710,0.02274
1907.19749,0.02297
1905.13788,0.02291
1903.07827,0.02229
1901.01866,0.02183
1898.95905,0.02205
1896.89944,0.02239
1894.83984,0.02228
1892.78023,0.02214
1890.72062,0.02235
1888.66101,0.02246
1886.60140,0.02231
1884.54179,0.02224
1882.48219,0.02229
1880.42258,0.02236
1878.36297,0.02242
1876.30336,0.02255
1874.24375,0.02274
1872.18414,0.02291
1870.12453,0.02313
1868.06493,0.02330
1866.00532,0.02311
1863.94571,0.02288
1861.88610,0.02295
1859.82649,0.02310
1857.76688,0.02322
1855.70727,0.02320
1853.64767,0.02307
1851.58806,0.02305
1849.52845,0.02320
1847.46884,0.02318
1845.40923,0.02302
1843.34962,0.02319
1841.29002,0.02364
1839.23041,0.02397
1837.17080,0.02415
1835.11119,0.02423
1833.05158,0.02416
1830.99197,0.02401
1828.93236,0.02409
1826.87276,0.02446
1824.81315,0.02479
1822.75354,0.02492
1820.69393,0.02500
1818.63432,0.02521
1816.57471,0.02559
1814.51510,0.02601
1812.45550,0.02626
1810.39589,0.02642
1808.33628,0.02668
1806.27667,0.02700
1804.21706,0.02734
1802.15745,0.02763
1800.09784,0.02784
1798.03824,0.02810
1795.97863,0.02855
1793.91902,0.02907
1791.85941,0.02935
1789.79980,0.02948
1787.74019,0.02984
1785.68059,0.03042
1783.62098,0.03085
1781.56137,0.03116
1779.50176,0.03162
1777.44215,0.03229
1775.38254,0.03286
1773.32293,0.03333
1771.26333,0.03396
1769.20372,0.03459
1767.14411,0.03506
1765.08450,0.03562
1763.02489,0.03641
1760.96528,0.03745
1758.90567,0.03854
1756.84607,0.03957
1754.78646,0.04033
1752.72685,0.04095
1750.66724,0.04197
1748.60763,0.04322
1746.54802,0.04442
1744.48841,0.04568
1742.42881,0.04699
1740.36920,0.04831
1738.30959,0.04961
1736.24998,0.05092
1734.19037,0.05294
1732.13076,0.05524
1730.07116,0.05703
1728.01155,0.05886
1725.95194,0.06074
1723.89233,0.06281
1721.83272,0.06501
1719.77311,0.06733
1717.71350,0.07037
1715.65390,0.07393
1713.59429,0.07712
1711.53468,0.08027
1709.47507,0.08360
1707.41546,0.08713
1705.35585,0.09105
1703.29624,0.09469
1701.23664,0.09890
1699.17703,0.10426
1697.11742,0.10907
1695.05781,0.11456
1692.99820,0.11979
1690.93859,0.12423
1688.87898,0.12913
1686.81938,0.13411
1684.75977,0.14075
1682.70016,0.14860
1680.64055,0.15431
1678.58094,0.15926
1676.52133,0.16495
1674.46173,0.17186
1672.40212,0.17836
1670.34251,0.18492
1668.28290,0.19218
1666.22329,0.19801
1664.16368,0.20360
1662.10407,0.21040
1660.04447,0.21686
1657.98486,0.22220
1655.92525,0.22682
1653.86564,0.23322
1651.80603,0.24138
1649.74642,0.24557
1647.68681,0.24923
1645.62721,0.25430
1643.56760,0.25784
1641.50799,0.25987
1639.44838,0.26109
1637.38877,0.26169
1635.32916,0.26214
1633.26955,0.26144
1631.20995,0.25927
1629.15034,0.25600
1627.09073,0.25183
1625.03112,0.24686
1622.97151,0.24080
1620.91190,0.23425
1618.85230,0.22771
1616.79269,0.21989
1614.73308,0.21161
1612.67347,0.20432
1610.61386,0.19717
1608.55425,0.18985
1606.49464,0.18264
1604.43504,0.17572
1602.37543,0.16900
1600.31582,0.16266
1598.25621,0.15681
1596.19660,0.15135
1594.13699,0.14615
1592.07738,0.14124
1590.01778,0.13661
1587.95817,0.13227
1585.89856,0.12817
1583.83895,0.12436
1581.77934,0.12088
1579.71973,0.11776
1577.66012,0.11474
1575.60052,0.11165
1573.54091,0.10913
1571.48130,0.10682
1569.42169,0.10427
1567.36208,0.10196
1565.30247,0.09997
1563.24287,0.09815
1561.18326,0.09650
1559.12365,0.09470
1557.06404,0.09305
1555.00443,0.09166
1552.94482,0.09018
1550.88521,0.08880
1548.82561,0.08762
1546.76600,0.08648
1544.70639,0.08523
1542.64678,0.08402
1540.58717,0.08308
1538.52756,0.08242
1536.46795,0.08164
1534.40835,0.08060
1532.34874,0.07958
1530.28913,0.07884
1528.22952,0.07824
1526.16991,0.07764
1524.11030,0.07697
1522.05069,0.07612
1519.99109,0.07531
1517.93148,0.07473
1515.87187,0.07427
1513.81226,0.07377
1511.75265,0.07324
1509.69304,0.07267
1507.63344,0.07210
1505.57383,0.07178
1503.51422,0.07151
1501.45461,0.07108
1499.39500,0.07054
1497.33539,0.07000
1495.27578,0.06953
1493.21618,0.06923
1491.15657,0.06903
1489.09696,0.06886
1487.03735,0.06862
1484.97774,0.06829
1482.91813,0.06792
1480.85852,0.06763
1478.79892,0.06727
1476.73931,0.06683
1474.67970,0.06655
1472.62009,0.06638
1470.56048,0.06617
1468.50087,0.06588
1466.44126,0.06567
1464.38166,0.06553
1462.32205,0.06521
1460.26244,0.06472
1458.20283,0.06428
1456.14322,0.06421
1454.08361,0.06421
1452.02401,0.06397
1449.96440,0.06367
1447.90479,0.06349
1445.84518,0.06334
1443.78557,0.06311
1441.72596,0.06294
1439.66635,0.06285
1437.60675,0.06271
1435.54714,0.06250
1433.48753,0.06233
1431.42792,0.06225
1429.36831,0.06226
1427.30870,0.06227
1425.24909,0.06210
1423.18949,0.06169
1421.12988,0.06129
1419.07027,0.06114
1417.01066,0.06113
1414.95105,0.06105
1412.89144,0.06091
1410.83183,0.06069
1408.77223,0.06045
1406.71262,0.06032
1404.65301,0.06030
1402.59340,0.06022
1400.53379,0.06003
1398.47418,0.05983
1396.41458,0.05972
1394.35497,0.05971
1392.29536,0.05963
1390.23575,0.05946
1388.17614,0.05938
1386.11653,0.05935
1384.05692,0.05915
1381.99732,0.05887
1379.93771,0.05872
1377.87810,0.05872
1375.81849,0.05874
1373.75888,0.05864
1371.69927,0.05847
1369.63966,0.05839
1367.58006,0.05835
1365.52045,0.05824
1363.46084,0.05807
1361.40123,0.05791
1359.34162,0.05774
1357.28201,0.05759
1355.22240,0.05747
1353.16280,0.05740
1351.10319,0.05740
1349.04358,0.05738
1346.98397,0.05730
1344.92436,0.05712
1342.86475,0.05693
1340.80515,0.05684
1338.74554,0.05681
1336.68593,0.05678
1334.62632,0.05669
1332.56671,0.05656
1330.50710,0.05647
1328.44749,0.05637
1326.38789,0.05622
1324.32828,0.05612
1322.26867,0.05612
1320.20906,0.05613
1318.14945,0.05599
1316.08984,0.05582
1314.03023,0.05575
1311.97063,0.05569
1309.91102,0.05561
1307.85141,0.05552
1305.79180,0.05541
1303.73219,0.05528
1301.67258,0.05516
1299.61297,0.05504
1297.55337,0.05495
1295.49376,0.05491
1293.43415,0.05488
1291.37454,0.05479
1289.31493,0.05464
1287.25532,0.05454
1285.19572,0.05448
1283.13611,0.05441
1281.07650,0.05429
1279.01689,0.05413
1276.95728,0.05405
1274.89767,0.05406
1272.83806,0.05412
1270.77846,0.05413
1268.71885,0.05403
1266.65924,0.05382
1264.59963,0.05357
1262.54002,0.05341
1260.48041,0.05330
1258.42080,0.05314
1256.36120,0.05309
1254.30159,0.05314
1252.24198,0.05305
1250.18237,0.05283
1248.12276,0.05269
1246.06315,0.05263
1244.00354,0.05253
1241.94394,0.05244
1239.88433,0.05246
1237.82472,0.05246
1235.76511,0.05237
1233.70550,0.05217
1231.64589,0.05195
1229.58629,0.05187
1227.52668,0.05187
1225.46707,0.05181
1223.40746,0.05171
1221.34785,0.05164
1219.28824,0.05155
1217.22863,0.05144
1215.16903,0.05134
1213.10942,0.05124
1211.04981,0.05114
1208.99020,0.05099
1206.93059,0.05077
1204.87098,0.05064
1202.81137,0.05064
1200.75177,0.05062
1198.69216,0.05052
1196.63255,0.05046
1194.57294,0.05041
1192.51333,0.05040
1190.45372,0.05043
1188.39411,0.05031
1186.33451,0.05006
1184.27490,0.04994
1182.21529,0.04988
1180.15568,0.04976
1178.09607,0.04966
1176.03646,0.04958
1173.97686,0.04946
1171.91725,0.04940
1169.85764,0.04939
1167.79803,0.04933
1165.73842,0.04918
1163.67881,0.04899
1161.61920,0.04888
1159.55960,0.04886
1157.49999,0.04874
1155.44038,0.04856
1153.38077,0.04851
1151.32116,0.04854
1149.26155,0.04852
1147.20194,0.04846
1145.14234,0.04836
1143.08273,0.04821
1141.02312,0.04807
1138.96351,0.04801
1136.90390,0.04793
1134.84429,0.04776
1132.78468,0.04765
1130.72508,0.04772
1128.66547,0.04783
1126.60586,0.04776
1124.54625,0.04756
1122.48664,0.04743
1120.42703,0.04737
1118.36743,0.04733
1116.30782,0.04731
1114.24821,0.04727
1112.18860,0.04717
1110.12899,0.04702
1108.06938,0.04694
1106.00977,0.04687
1103.95017,0.04674
1101.89056,0.04666
1099.83095,0.04662
1097.77134,0.04663
1095.71173,0.04677
1093.65212,0.04694
1091.59251,0.04706
1089.53291,0.04700
1087.47330,0.04682
1085.41369,0.04682
1083.35408,0.04691
1081.29447,0.04678
1079.23486,0.04654
1077.17525,0.04653
1075.11565,0.04666
1073.05604,0.04668
1070.99643,0.04669
1068.93682,0.04680
1066.87721,0.04685
1064.81760,0.04681
1062.75800,0.04683
1060.69839,0.04691
1058.63878,0.04700
1056.57917,0.04710
1054.51956,0.04714
1052.45995,0.04711
1050.40034,0.04705
1048.34074,0.04706
1046.28113,0.04716
1044.22152,0.04725
1042.16191,0.04725
1040.10230,0.04733
1038.04269,0.04754
1035.98308,0.04765
1033.92348,0.04767
1031.86387,0.04780
1029.80426,0.04797
1027.74465,0.04804
1025.68504,0.04809
1023.62543,0.04815
1021.56582,0.04831
1019.50622,0.04857
1017.44661,0.04869
1015.38700,0.04874
1013.32739,0.04893
1011.26778,0.04917
1009.20817,0.04933
1007.14857,0.04946
1005.08896,0.04962
1003.02935,0.04983
1000.96974,0.05002
998.91013,0.05022
996.85052,0.05047
994.79091,0.05068
992.73131,0.05086
990.67170,0.05116
988.61209,0.05154
986.55248,0.05186
984.49287,0.05212
982.43326,0.05243
980.37365,0.05281
978.31405,0.05317
976.25444,0.05348
974.19483,0.05374
972.13522,0.05401
970.07561,0.05431
968.01600,0.05465
965.95639,0.05515
963.89679,0.05578
961.83718,0.05634
959.77757,0.05682
957.71796,0.05731
955.65835,0.05778
953.59874,0.05833
951.53914,0.05898
949.47953,0.05957
947.41992,0.06011
945.36031,0.06064
943.30070,0.06126
941.24109,0.06199
939.18148,0.06270
937.12188,0.06338
935.06227,0.06415
933.00266,0.06496
930.94305,0.06581
928.88344,0.06670
926.82383,0.06752
924.76422,0.06827
922.70462,0.06912
920.64501,0.07014
918.58540,0.07113
916.52579,0.07205
914.46618,0.07307
912.40657,0.07413
910.34696,0.07507
908.28736,0.07603
906.22775,0.07722
904.16814,0.07858
902.10853,0.07981
900.04892,0.08093
897.98931,0.08213
895.92971,0.08336
893.87010,0.08460
891.81049,0.08592
889.75088,0.08722
887.69127,0.08845
885.63166,0.08961
883.57205,0.09083
881.51245,0.09222
879.45284,0.09372
877.39323,0.09526
875.33362,0.09679
873.27401,0.09819
871.21440,0.09962
869.15479,0.10110
867.09519,0.10252
865.03558,0.10401
862.97597,0.10559
860.91636,0.10705
858.85675,0.10852
856.79714,0.11014
854.73753,0.11182
852.67793,0.11343
850.61832,0.11493
848.55871,0.11640
846.49910,0.11790
844.43949,0.11943
842.37988,0.12100
840.32028,0.12262
838.26067,0.12422
836.20106,0.12571
834.14145,0.12722
832.08184,0.12898
830.02223,0.13072
827.96262,0.13217
825.90302,0.13360
823.84341,0.13516
821.78380,0.13676
819.72419,0.13841
817.66458,0.14000
815.60497,0.14155
813.54536,0.14310
811.48576,0.14471
809.42615,0.14648
807.36654,0.14819
805.30693,0.14976
803.24732,0.15139
801.18771,0.15302
799.12810,0.15444
797.06850,0.15583
795.00889,0.15739
792.94928,0.15909
790.88967,0.16075
788.83006,0.16237
786.77045,0.16404
784.71085,0.16564
782.65124,0.16711
780.59163,0.16853
778.53202,0.16994
776.47241,0.17146
774.41280,0.17310
772.35319,0.17474
770.29359,0.17632
768.23398,0.17779
766.17437,0.17921
764.11476,0.18066
762.05515,0.18219
759.99554,0.18374
757.93593,0.18516
755.87633,0.18649
753.81672,0.18798
751.75711,0.18949
749.69750,0.19084
747.63789,0.19211
745.57828,0.19340
743.51867,0.19481
741.45907,0.19622
739.39946,0.19751
737.33985,0.19884
735.28024,0.20026
733.22063,0.20159
731.16102,0.20289
729.10142,0.20413
727.04181,0.20529
724.98220,0.20659
722.92259,0.20787
720.86298,0.20888
718.80337,0.20994
716.74376,0.21127
714.68416,0.21262
712.62455,0.21387
710.56494,0.21511
708.50533,0.21640
706.44572,0.21767
704.38611,0.21897
702.32650,0.22031
700.26690,0.22143
698.20729,0.22234
696.14768,0.22324
694.08807,0.22432
692.02846,0.22560
689.96885,0.22673
687.90924,0.22760
685.84964,0.22851
683.79003,0.22972
681.73042,0.23116
679.67081,0.23230
677.61120,0.23293
675.55159,0.23359
673.49199,0.23456
671.43238,0.23540
669.37277,0.23622
667.31316,0.23755
665.25355,0.23856
663.19394,0.23934
661.13433,0.24029
659.07473,0.24099
657.01512,0.24140
654.95551,0.24207
652.89590,0.24326
650.83629,0.24422
648.77668,0.24474
646.71707,0.24541
644.65747,0.24627
642.59786,0.24698
640.53825,0.24740
638.47864,0.24774
636.41903,0.24835
634.35942,0.24921
632.29981,0.25000
630.24021,0.25058
628.18060,0.25099
626.12099,0.25146
624.06138,0.25225
622.00177,0.25306
619.94216,0.25348
617.88256,0.25375
615.82295,0.25410
613.76334,0.25442
611.70373,0.25471
609.64412,0.25515
607.58451,0.25568
605.52490,0.25611
603.46530,0.25634
601.40569,0.25658
599.34608,0.25695
597.28647,0.25723
595.22686,0.25735
593.16725,0.25753
591.10764,0.25804
589.04804,0.25868
586.98843,0.25898
584.92882,0.25887
582.86921,0.25873
580.80960,0.25879
578.74999,0.25877
576.69039,0.25867
574.63078,0.25873
572.57117,0.25891
570.51156,0.25900
568.45195,0.25902
566.39234,0.25908
564.33273,0.25905
562.27313,0.25890
560.21352,0.25888
558.15391,0.25893
556.09430,0.25880
554.03469,0.25867
551.97508,0.25864
549.91547,0.25850
547.85587,0.25842
545.79626,0.25853
543.73665,0.25868
541.67704,0.25878
539.61743,0.25832
537.55782,0.25719
535.49821,0.25621
533.43861,0.25576
531.37900,0.25563
529.31939,0.25562
527.25978,0.25534
525.20017,0.25476
523.14056,0.25439
521.08096,0.25438
519.02135,0.25441
516.96174,0.25406
514.90213,0.25321
512.84252,0.25207
510.78291,0.25132
508.72330,0.25116
506.66370,0.25081
504.60409,0.25007
502.54448,0.24946
500.48487,0.24898
498.42526,0.24848
496.36565,0.24831
494.30604,0.24818
492.24644,0.24771
490.18683,0.24714
488.12722,0.24611
486.06761,0.24470
484.00800,0.24409
481.94839,0.24424
479.88878,0.24411
477.82918,0.24343
475.76957,0.24270
473.70996,0.24235
471.65035,0.24200
469.59074,0.24110
467.53113,0.24012
465.47153,0.23921
463.41192,0.23820
461.35231,0.23734
459.29270,0.23673
457.23309,0.23613
455.17348,0.23547
453.11387,0.23500
451.05427,0.23466
448.99466,0.23403
446.93505,0.23314
444.87544,0.23236
442.81583,0.23199
440.75622,0.23196
438.69661,0.23139
436.63701,0.23014
434.57740,0.22940
432.51779,0.22870
430.45818,0.22707
428.39857,0.22547
426.33896,0.22478
424.27935,0.22464
422.21975,0.22450
420.16014,0.22371
418.10053,0.22126
416.04092,0.21885
413.98131,0.21816
411.92170,0.21800
409.86210,0.21766
407.80249,0.21754
405.74288,0.21655
403.68327,0.21450
401.62366,0.21304
399.56405,0.21300
