3997.70013,0.08336
3995.64052,0.08274
3993.58092,0.08269
3991.52131,0.08337
3989.46170,0.08435
3987.40209,0.08484
3985.34248,0.08470
3983.28287,0.08429
3981.22327,0.08382
3979.16366,0.08380
3977.10405,0.08431
3975.04444,0.08499
3972.98483,0.08552
3970.92522,0.08540
3968.86561,0.08499
3966.80601,0.08489
3964.74640,0.08445
3962.68679,0.08327
3960.62718,0.08250
3958.56757,0.08280
3956.50796,0.08305
3954.44835,0.08284
3952.38875,0.08282
3950.32914,0.08305
3948.26953,0.08328
3946.20992,0.08360
3944.15031,0.08398
3942.09070,0.08362
3940.03109,0.08256
3937.97149,0.08198
3935.91188,0.08215
3933.85227,0.08264
3931.79266,0.08274
3929.73305,0.08206
3927.67344,0.08124
3925.61384,0.08099
3923.55423,0.08144
3921.49462,0.08197
3919.43501,0.08238
3917.37540,0.08267
3915.31579,0.08200
3913.25618,0.08067
3911.19658,0.08022
3909.13697,0.08050
3907.07736,0.08046
3905.01775,0.08010
3902.95814,0.07982
3900.89853,0.07991
3898.83892,0.08024
3896.77932,0.08035
3894.71971,0.07991
3892.66010,0.07913
3890.60049,0.07895
3888.54088,0.07929
3886.48127,0.07935
3884.42166,0.07942
3882.36206,0.07950
3880.30245,0.07916
3878.24284,0.07853
3876.18323,0.07789
3874.12362,0.07778
3872.06401,0.07784
3870.00441,0.07725
3867.94480,0.07695
3865.88519,0.07752
3863.82558,0.07769
3861.76597,0.07725
3859.70636,0.07726
3857.64675,0.07734
3855.58715,0.07678
3853.52754,0.07634
3851.46793,0.07692
3849.40832,0.07703
3847.34871,0.07658
3845.28910,0.07647
3843.22949,0.07704
3841.16989,0.07744
3839.11028,0.07708
3837.05067,0.07671
3834.99106,0.07642
3832.93145,0.07586
3830.87184,0.07559
3828.81223,0.07596
3826.75263,0.07622
3824.69302,0.07609
3822.63341,0.07583
3820.57380,0.07532
3818.51419,0.07497
3816.45458,0.07517
3814.39498,0.07574
3812.33537,0.07614
3810.27576,0.07600
3808.21615,0.07524
3806.15654,0.07435
3804.09693,0.07393
3802.03732,0.07432
3799.97772,0.07496
3797.91811,0.07460
3795.85850,0.07392
3793.79889,0.07390
3791.73928,0.07384
3789.67967,0.07347
3787.62006,0.07388
3785.56046,0.07471
3783.50085,0.07458
3781.44124,0.07386
3779.38163,0.07345
3777.32202,0.07312
3775.26241,0.07287
3773.20280,0.07307
3771.14320,0.07301
3769.08359,0.07252
3767.02398,0.07238
3764.96437,0.07279
3762.90476,0.07340
3760.84515,0.07350
3758.78555,0.07315
3756.72594,0.07295
3754.66633,0.07244
3752.60672,0.07122
3750.54711,0.07035
3748.48750,0.07048
3746.42789,0.06995
3744.36829,0.06873
3742.30868,0.06915
3740.24907,0.07038
3738.18946,0.07105
3736.12985,0.07110
3734.07024,0.07046
3732.01063,0.07004
3729.95103,0.07035
3727.89142,0.07048
3725.83181,0.06994
3723.77220,0.06966
3721.71259,0.06997
3719.65298,0.06987
3717.59337,0.06908
3715.53377,0.06799
3713.47416,0.06737
3711.41455,0.06776
3709.35494,0.06830
3707.29533,0.06849
3705.23572,0.06825
3703.17612,0.06773
3701.11651,0.06764
3699.05690,0.06792
3696.99729,0.06803
3694.93768,0.06798
3692.87807,0.06779
3690.81846,0.06734
3688.75886,0.06721
3686.69925,0.06757
3684.63964,0.06772
3682.58003,0.06763
3680.52042,0.06748
3678.46081,0.06711
3676.40120,0.06696
3674.34160,0.06691
3672.28199,0.06620
3670.22238,0.06617
3668.16277,0.06707
3666.10316,0.06765
3664.04355,0.06778
3661.98394,0.06755
3659.92434,0.06731
3657.86473,0.06695
3655.80512,0.06696
3653.74551,0.06769
3651.68590,0.06800
3649.62629,0.06771
3647.56669,0.06739
3645.50708,0.06725
3643.44747,0.06771
3641.38786,0.06868
3639.32825,0.06947
3637.26864,0.06984
3635.20903,0.06991
3633.14943,0.07006
3631.08982,0.07012
3629.03021,0.06990
3626.97060,0.07038
3624.91099,0.07094
3622.85138,0.07075
3620.79177,0.07039
3618.73217,0.06995
3616.67256,0.06981
3614.61295,0.07071
3612.55334,0.07181
3610.49373,0.07242
3608.43412,0.07289
3606.37451,0.07299
3604.31491,0.07294
3602.25530,0.07323
3600.19569,0.07370
3598.13608,0.07437
3596.07647,0.07493
3594.01686,0.07487
3591.95726,0.07444
3589.89765,0.07417
3587.83804,0.07456
3585.77843,0.07551
3583.71882,0.07631
3581.65921,0.07659
3579.59960,0.07648
3577.54000,0.07667
3575.48039,0.07759
3573.42078,0.07844
3571.36117,0.07866
3569.30156,0.07874
3567.24195,0.07897
3565.18234,0.07953
3563.12274,0.08076
3561.06313,0.08185
3559.00352,0.08187
3556.94391,0.08164
3554.88430,0.08198
3552.82469,0.08249
3550.76508,0.08278
3548.70548,0.08303
3546.64587,0.08365
3544.58626,0.08427
3542.52665,0.08466
3540.46704,0.08521
3538.40743,0.08618
3536.34783,0.08727
3534.28822,0.08780
3532.22861,0.08766
3530.16900,0.08746
3528.10939,0.08768
3526.04978,0.08839
3523.99017,0.08956
3521.93057,0.09068
3519.87096,0.09120
3517.81135,0.09132
3515.75174,0.09161
3513.69213,0.09274
3511.63252,0.09424
3509.57291,0.09506
3507.51331,0.09524
3505.45370,0.09528
3503.39409,0.09559
3501.33448,0.09620
3499.27487,0.09695
3497.21526,0.09785
3495.15565,0.09848
3493.09605,0.09881
3491.03644,0.09918
3488.97683,0.09975
3486.91722,0.10062
3484.85761,0.10116
3482.79800,0.10123
3480.73840,0.10170
3478.67879,0.10275
3476.61918,0.10412
3474.55957,0.10560
3472.49996,0.10677
3470.44035,0.10728
3468.38074,0.10744
3466.32114,0.10791
3464.26153,0.10873
3462.20192,0.10934
3460.14231,0.10963
3458.08270,0.11023
3456.02309,0.11119
3453.96348,0.11181
3451.90388,0.11210
3449.84427,0.11251
3447.78466,0.11322
3445.72505,0.11429
3443.66544,0.11546
3441.60583,0.11633
3439.54622,0.11683
3437.48662,0.11740
3435.42701,0.11867
3433.36740,0.11999
3431.30779,0.12049
3429.24818,0.12081
3427.18857,0.12142
3425.12897,0.12198
3423.06936,0.12257
3421.00975,0.12355
3418.95014,0.12482
3416.89053,0.12594
3414.83092,0.12677
3412.77131,0.12747
3410.71171,0.12824
3408.65210,0.12881
3406.59249,0.12909
3404.53288,0.12955
3402.47327,0.13030
3400.41366,0.13136
3398.35405,0.13260
3396.29445,0.13337
3394.23484,0.13393
3392.17523,0.13499
3390.11562,0.13601
3388.05601,0.13637
3385.99640,0.13668
3383.93679,0.13742
3381.87719,0.13823
3379.81758,0.13899
3377.75797,0.13993
3375.69836,0.14085
3373.63875,0.14165
3371.57914,0.14289
3369.51954,0.14450
3367.45993,0.14581
3365.40032,0.14714
3363.34071,0.14853
3361.28110,0.14955
3359.22149,0.15032
3357.16188,0.15121
3355.10228,0.15226
3353.04267,0.15349
3350.98306,0.15514
3348.92345,0.15703
3346.86384,0.15862
3344.80423,0.15988
3342.74462,0.16131
3340.68502,0.16314
3338.62541,0.16485
3336.56580,0.16644
3334.50619,0.16825
3332.44658,0.17010
3330.38697,0.17220
3328.32736,0.17467
3326.26776,0.17686
3324.20815,0.17848
3322.14854,0.18005
3320.08893,0.18243
3318.02932,0.18548
3315.96971,0.18813
3313.91011,0.19033
3311.85050,0.19274
3309.79089,0.19543
3307.73128,0.19806
3305.67167,0.20051
3303.61206,0.20295
3301.55245,0.20557
3299.49285,0.20836
3297.43324,0.21119
3295.37363,0.21400
3293.31402,0.21688
3291.25441,0.21975
3289.19480,0.22222
3287.13519,0.22422
3285.07559,0.22629
3283.01598,0.22844
3280.95637,0.22972
3278.89676,0.23016
3276.83715,0.23056
3274.77754,0.23092
3272.71793,0.23112
3270.65833,0.23079
3268.59872,0.22929
3266.53911,0.22719
3264.47950,0.22520
3262.41989,0.22302
3260.36028,0.22045
3258.30068,0.21798
3256.24107,0.21557
3254.18146,0.21289
3252.12185,0.21025
3250.06224,0.20774
3248.00263,0.20524
3245.94302,0.20264
3243.88342,0.20016
3241.82381,0.19791
3239.76420,0.19543
3237.70459,0.19288
3235.64498,0.19083
3233.58537,0.18919
3231.52576,0.18752
3229.46616,0.18561
3227.40655,0.18356
3225.34694,0.18140
3223.28733,0.17929
3221.22772,0.17795
3219.16811,0.17709
3217.10850,0.17592
3215.04890,0.17458
3212.98929,0.17318
3210.92968,0.17156
3208.87007,0.16995
3206.81046,0.16866
3204.75085,0.16757
3202.69125,0.16633
3200.63164,0.16492
3198.57203,0.16387
3196.51242,0.16315
3194.45281,0.16192
3192.39320,0.16016
3190.33359,0.15849
3188.27399,0.15704
3186.21438,0.15573
3184.15477,0.15469
3182.09516,0.15378
3180.03555,0.15272
3177.97594,0.15150
3175.91633,0.14996
3173.85673,0.14803
3171.79712,0.14612
3169.73751,0.14481
3167.67790,0.14409
3165.61829,0.14335
3163.55868,0.14200
3161.49907,0.14048
3159.43947,0.13909
3157.37986,0.13753
3155.32025,0.13602
3153.26064,0.13480
3151.20103,0.13373
3149.14142,0.13285
3147.08182,0.13222
3145.02221,0.13169
3142.96260,0.13114
3140.90299,0.13047
3138.84338,0.12956
3136.78377,0.12836
3134.72416,0.12746
3132.66456,0.12708
3130.60495,0.12647
3128.54534,0.12527
3126.48573,0.12413
3124.42612,0.12339
3122.36651,0.12265
3120.30690,0.12195
3118.24730,0.12151
3116.18769,0.12122
3114.12808,0.12090
3112.06847,0.12058
3110.00886,0.12025
3107.94925,0.11986
3105.88965,0.11982
3103.83004,0.11998
3101.77043,0.11962
3099.71082,0.11929
3097.65121,0.11962
3095.59160,0.11982
3093.53199,0.11969
3091.47239,0.11986
3089.41278,0.12008
3087.35317,0.12012
3085.29356,0.12055
3083.23395,0.12093
3081.17434,0.12070
3079.11473,0.12056
3077.05513,0.12063
3074.99552,0.12044
3072.93591,0.12021
3070.87630,0.12004
3068.81669,0.11992
3066.75708,0.11988
3064.69747,0.11945
3062.63787,0.11861
3060.57826,0.11787
3058.51865,0.11717
3056.45904,0.11613
3054.39943,0.11514
3052.33982,0.11474
3050.28022,0.11434
3048.22061,0.11383
3046.16100,0.11371
3044.10139,0.11350
3042.04178,0.11247
3039.98217,0.11096
3037.92256,0.10977
3035.86296,0.10891
3033.80335,0.10803
3031.74374,0.10721
3029.68413,0.10667
3027.62452,0.10606
3025.56491,0.10514
3023.50530,0.10412
3021.44570,0.10348
3019.38609,0.10330
3017.32648,0.10301
3015.26687,0.10225
3013.20726,0.10123
3011.14765,0.10027
3009.08804,0.09980
3007.02844,0.09992
3004.96883,0.10000
3002.90922,0.09979
3000.84961,0.09971
2998.79000,0.10016
2996.73039,0.10088
2994.67079,0.10136
2992.61118,0.10162
2990.55157,0.10206
2988.49196,0.10260
2986.43235,0.10341
2984.37274,0.10471
2982.31313,0.10594
2980.25353,0.10660
2978.19392,0.10689
2976.13431,0.10746
2974.07470,0.10872
2972.01509,0.11029
2969.95548,0.11176
2967.89587,0.11311
2965.83627,0.11418
2963.77666,0.11478
2961.71705,0.11506
2959.65744,0.11541
2957.59783,0.11583
2955.53822,0.11588
2953.47861,0.11549
2951.41901,0.11489
2949.35940,0.11423
2947.29979,0.11377
2945.24018,0.11382
2943.18057,0.11442
2941.12096,0.11545
2939.06136,0.11687
2937.00175,0.11857
2934.94214,0.12041
2932.88253,0.12196
2930.82292,0.12317
2928.76331,0.12417
2926.70370,0.12471
2924.64410,0.12547
2922.58449,0.12710
2920.52488,0.12876
2918.46527,0.12934
2916.40566,0.12799
2914.34605,0.12448
2912.28644,0.11978
2910.22684,0.11553
2908.16723,0.11252
2906.10762,0.11000
2904.04801,0.10769
2901.98840,0.10624
2899.92879,0.10541
2897.86918,0.10456
2895.80958,0.10384
2893.74997,0.10338
2891.69036,0.10286
2889.63075,0.10210
2887.57114,0.10147
2885.51153,0.10134
2883.45193,0.10153
2881.39232,0.10183
2879.33271,0.10242
2877.27310,0.10316
2875.21349,0.10350
2873.15388,0.10323
2871.09427,0.10251
2869.03467,0.10127
2866.97506,0.09965
2864.91545,0.09825
2862.85584,0.09744
2860.79623,0.09714
2858.73662,0.09720
2856.67701,0.09766
2854.61741,0.09877
2852.55780,0.10063
2850.49819,0.10221
2848.43858,0.10150
2846.37897,0.09824
2844.31936,0.09437
2842.25975,0.09126
2840.20015,0.08916
2838.14054,0.08778
2836.08093,0.08653
2834.02132,0.08547
2831.96171,0.08486
2829.90210,0.08433
2827.84250,0.08368
2825.78289,0.08307
2823.72328,0.08255
2821.66367,0.08218
2819.60406,0.08171
2817.54445,0.08104
2815.48484,0.08053
2813.42524,0.08030
2811.36563,0.07992
2809.30602,0.07945
2807.24641,0.07922
2805.18680,0.07913
2803.12719,0.07896
2801.06758,0.07860
2799.00798,0.07813
2796.94837,0.07780
2794.88876,0.07762
2792.82915,0.07737
2790.76954,0.07695
2788.70993,0.07652
2786.65032,0.07631
2784.59072,0.07618
2782.53111,0.07583
2780.47150,0.07530
2778.41189,0.07484
2776.35228,0.07461
2774.29267,0.07449
2772.23307,0.07424
2770.17346,0.07390
2768.11385,0.07354
2766.05424,0.07312
2763.99463,0.07280
2761.93502,0.07271
2759.87541,0.07279
2757.81581,0.07276
2755.75620,0.07248
2753.69659,0.07206
2751.63698,0.07162
2749.57737,0.07133
2747.51776,0.07121
2745.45815,0.07098
2743.39855,0.07054
2741.33894,0.07019
2739.27933,0.07008
2737.21972,0.06996
2735.16011,0.06964
2733.10050,0.06926
2731.04089,0.06905
2728.98129,0.06900
2726.92168,0.06876
2724.86207,0.06828
2722.80246,0.06789
2720.74285,0.06766
2718.68324,0.06742
2716.62364,0.06698
2714.56403,0.06646
2712.50442,0.06627
2710.44481,0.06633
2708.38520,0.06612
2706.32559,0.06576
2704.26598,0.06563
2702.20638,0.06555
2700.14677,0.06538
2698.08716,0.06514
2696.02755,0.06488
2693.96794,0.06454
2691.90833,0.06413
2689.84872,0.06394
2687.78912,0.06393
2685.72951,0.06378
2683.66990,0.06339
2681.61029,0.06307
2679.55068,0.06287
2677.49107,0.06270
2675.43146,0.06256
2673.37186,0.06231
2671.31225,0.06195
2669.25264,0.06171
2667.19303,0.06167
2665.13342,0.06193
2663.07381,0.06218
2661.01421,0.06199
2658.95460,0.06166
2656.89499,0.06150
2654.83538,0.06151
2652.77577,0.06144
2650.71616,0.06103
2648.65655,0.06052
2646.59695,0.06026
2644.53734,0.06007
2642.47773,0.05970
2640.41812,0.05959
2638.35851,0.05967
2636.29890,0.05940
2634.23929,0.05884
2632.17969,0.05835
2630.12008,0.05824
2628.06047,0.05823
2626.00086,0.05806
2623.94125,0.05800
2621.88164,0.05798
2619.82203,0.05773
2617.76243,0.05730
2615.70282,0.05668
2613.64321,0.05617
2611.58360,0.05611
2609.52399,0.05627
2607.46438,0.05657
2605.40478,0.05676
2603.34517,0.05637
2601.28556,0.05577
2599.22595,0.05541
2597.16634,0.05510
2595.10673,0.05484
2593.04712,0.05466
2590.98752,0.05446
2588.92791,0.05448
2586.86830,0.05469
2584.80869,0.05450
2582.74908,0.05397
2580.68947,0.05346
2578.62986,0.05308
2576.57026,0.05296
2574.51065,0.05295
2572.45104,0.05273
2570.39143,0.05230
2568.33182,0.05171
2566.27221,0.05115
2564.21260,0.05099
2562.15300,0.05125
2560.09339,0.05133
2558.03378,0.05103
2555.97417,0.05094
2553.91456,0.05101
2551.85495,0.05089
2549.79535,0.05074
2547.73574,0.05060
2545.67613,0.05027
2543.61652,0.04966
2541.55691,0.04904
2539.49730,0.04894
2537.43769,0.04927
2535.37809,0.04958
2533.31848,0.04956
2531.25887,0.04925
2529.19926,0.04906
2527.13965,0.04888
2525.08004,0.04839
2523.02043,0.04794
2520.96083,0.04801
2518.90122,0.04847
2516.84161,0.04861
2514.78200,0.04810
2512.72239,0.04768
2510.66278,0.04778
2508.60317,0.04773
2506.54357,0.04716
2504.48396,0.04666
2502.42435,0.04660
2500.36474,0.04667
2498.30513,0.04678
2496.24552,0.04697
2494.18592,0.04692
2492.12631,0.04654
2490.06670,0.04613
2488.00709,0.04598
2485.94748,0.04614
2483.88787,0.04633
2481.82826,0.04610
2479.76866,0.04580
2477.70905,0.04598
2475.64944,0.04636
2473.58983,0.04656
2471.53022,0.04630
2469.47061,0.04573
2467.41100,0.04549
2465.35140,0.04555
2463.29179,0.04549
2461.23218,0.04517
2459.17257,0.04463
2457.11296,0.04436
2455.05335,0.04488
2452.99374,0.04560
2450.93414,0.04554
2448.87453,0.04471
2446.81492,0.04386
2444.75531,0.04362
2442.69570,0.04381
2440.63609,0.04397
2438.57649,0.04405
2436.51688,0.04386
2434.45727,0.04334
2432.39766,0.04276
2430.33805,0.04242
2428.27844,0.04254
2426.21883,0.04281
2424.15923,0.04276
2422.09962,0.04262
2420.04001,0.04255
2417.98040,0.04239
2415.92079,0.04215
2413.86118,0.04192
2411.80157,0.04191
2409.74197,0.04200
2407.68236,0.04173
2405.62275,0.04118
2403.56314,0.04074
2401.50353,0.04066
2399.44392,0.04087
2397.38431,0.04095
2395.32471,0.04075
2393.26510,0.04050
2391.20549,0.04051
2389.14588,0.04070
2387.08627,0.04073
2385.02666,0.04045
2382.96706,0.04016
2380.90745,0.04022
2378.84784,0.04041
2376.78823,0.04027
2374.72862,0.03988
2372.66901,0.03951
2370.60940,0.03935
2368.54980,0.03931
2366.49019,0.03934
2364.43058,0.03960
2362.37097,0.03939
2360.31136,0.03891
2358.25175,0.03919
2356.19214,0.03957
2354.13254,0.03950
2352.07293,0.03985
2350.01332,0.04044
2347.95371,0.04039
2345.89410,0.03962
2343.83449,0.03857
2341.77488,0.03803
2339.71528,0.03822
2337.65567,0.03852
2335.59606,0.03869
2333.53645,0.03894
2331.47684,0.03898
2329.41723,0.03872
2327.35763,0.03904
2325.29802,0.03988
2323.23841,0.04005
2321.17880,0.03957
2319.11919,0.03923
2317.05958,0.03898
2314.99997,0.03860
2312.94037,0.03838
2310.88076,0.03851
2308.82115,0.03850
2306.76154,0.03813
2304.70193,0.03771
2302.64232,0.03746
2300.58271,0.03744
2298.52311,0.03738
2296.46350,0.03701
2294.40389,0.03676
2292.34428,0.03717
2290.28467,0.03773
2288.22506,0.03764
2286.16545,0.03722
2284.10585,0.03720
2282.04624,0.03729
2279.98663,0.03714
2277.92702,0.03686
2275.86741,0.03640
2273.80780,0.03612
2271.74820,0.03612
2269.68859,0.03578
2267.62898,0.03526
2265.56937,0.03513
2263.50976,0.03523
2261.45015,0.03559
2259.39054,0.03560
2257.33094,0.03468
2255.27133,0.03385
2253.21172,0.03359
2251.15211,0.03344
2249.09250,0.03318
2247.03289,0.03307
2244.97328,0.03316
2242.91368,0.03300
2240.85407,0.03284
2238.79446,0.03260
2236.73485,0.03222
2234.67524,0.03213
2232.61563,0.03196
2230.55602,0.03152
2228.49642,0.03107
2226.43681,0.03090
2224.37720,0.03106
2222.31759,0.03102
2220.25798,0.03085
2218.19837,0.03114
2216.13877,0.03196
2214.07916,0.03273
2212.01955,0.03295
2209.95994,0.03264
2207.90033,0.03173
2205.84072,0.03091
2203.78111,0.03137
2201.72151,0.03208
2199.66190,0.03185
2197.60229,0.03097
2195.54268,0.02950
2193.48307,0.02842
2191.42346,0.02849
2189.36385,0.02886
2187.30425,0.02889
2185.24464,0.02854
2183.18503,0.02812
2181.12542,0.02811
2179.06581,0.02794
2177.00620,0.02710
2174.94659,0.02699
2172.88699,0.02747
2170.82738,0.02664
2168.76777,0.02567
2166.70816,0.02656
2164.64855,0.02853
2162.58894,0.02966
2160.52934,0.02879
2158.46973,0.02608
2156.41012,0.02418
2154.35051,0.02472
2152.29090,0.02600
2150.23129,0.02643
2148.17168,0.02663
2146.11208,0.02733
2144.05247,0.02714
2141.99286,0.02599
2139.93325,0.02565
2137.87364,0.02595
2135.81403,0.02576
2133.75442,0.02499
2131.69482,0.02517
2129.63521,0.02670
2127.57560,0.02752
2125.51599,0.02707
2123.45638,0.02648
2121.39677,0.02611
2119.33716,0.02620
2117.27756,0.02735
2115.21795,0.02875
2113.15834,0.02924
2111.09873,0.02906
2109.03912,0.02862
2106.97951,0.02810
2104.91991,0.02773
2102.86030,0.02730
2100.80069,0.02674
2098.74108,0.02635
2096.68147,0.02614
2094.62186,0.02596
2092.56225,0.02592
2090.50265,0.02617
2088.44304,0.02679
2086.38343,0.02768
2084.32382,0.02807
2082.26421,0.02791
2080.20460,0.02762
2078.14499,0.02712
2076.08539,0.02681
2074.02578,0.02677
2071.96617,0.02652
2069.90656,0.02588
2067.84695,0.02562
2065.78734,0.02580
2063.72773,0.02552
2061.66813,0.02524
2059.60852,0.02557
2057.54891,0.02603
2055.48930,0.02607
2053.42969,0.02583
2051.37008,0.02544
2049.31048,0.02447
2047.25087,0.02337
2045.19126,0.02321
2043.13165,0.02330
2041.07204,0.02299
2039.01243,0.02301
2036.95282,0.02271
2034.89322,0.02201
2032.83361,0.02231
2030.77400,0.02251
2028.71439,0.02211
2026.65478,0.02217
2024.59517,0.02262
2022.53556,0.02287
2020.47596,0.02228
2018.41635,0.02154
2016.35674,0.02195
2014.29713,0.02307
2012.23752,0.02345
2010.17791,0.02337
2008.11830,0.02375
2006.05870,0.02390
2003.99909,0.02332
2001.93948,0.02233
1999.87987,0.02166
1997.82026,0.02134
1995.76065,0.02123
1993.70105,0.02173
1991.64144,0.02181
1989.58183,0.02083
1987.52222,0.02017
1985.46261,0.02053
1983.40300,0.02120
1981.34339,0.02151
1979.28379,0.02131
1977.22418,0.02056
1975.16457,0.01961
1973.10496,0.01937
1971.04535,0.01960
1968.98574,0.01928
1966.92613,0.01917
1964.86653,0.02005
1962.80692,0.02049
1960.74731,0.01979
1958.68770,0.01907
1956.62809,0.01922
1954.56848,0.01973
1952.50887,0.01968
1950.44927,0.01947
1948.38966,0.01981
1946.33005,0.02058
1944.27044,0.02109
1942.21083,0.02086
1940.15122,0.02066
1938.09162,0.02077
1936.03201,0.02074
1933.97240,0.02067
1931.91279,0.02064
1929.85318,0.02037
1927.79357,0.02001
1925.73396,0.02027
1923.67436,0.02096
1921.61475,0.02089
1919.55514,0.02011
1917.49553,0.01973
1915.43592,0.01982
1913.37631,0.01978
1911.31670,0.01955
1909.25710,0.01933
1907.19749,0.01935
1905.13788,0.01948
1903.07827,0.01958
1901.01866,0.01984
1898.95905,0.01990
1896.89944,0.01956
1894.83984,0.01944
1892.78023,0.01982
1890.72062,0.02030
1888.66101,0.02014
1886.60140,0.01944
1884.54179,0.01894
1882.48219,0.01871
1880.42258,0.01868
1878.36297,0.01883
1876.30336,0.01915
1874.24375,0.01954
1872.18414,0.01973
1870.12453,0.01975
1868.06493,0.01972
1866.00532,0.01936
1863.94571,0.01860
1861.88610,0.01811
1859.82649,0.01818
1857.76688,0.01831
1855.70727,0.01846
1853.64767,0.01875
1851.58806,0.01879
1849.52845,0.01857
1847.46884,0.01835
1845.40923,0.01843
1843.34962,0.01865
1841.29002,0.01844
1839.23041,0.01800
1837.17080,0.01788
1835.11119,0.01792
1833.05158,0.01780
1830.99197,0.01769
1828.93236,0.01756
1826.87276,0.01746
1824.81315,0.01752
1822.75354,0.01769
1820.69393,0.01788
1818.63432,0.01788
1816.57471,0.01763
1814.51510,0.01745
1812.45550,0.01739
1810.39589,0.01740
1808.33628,0.01744
1806.27667,0.01740
1804.21706,0.01734
1802.15745,0.01723
1800.09784,0.01710
1798.03824,0.01711
1795.97863,0.01721
1793.91902,0.01717
1791.85941,0.01717
1789.79980,0.01727
1787.74019,0.01725
1785.68059,0.01712
1783.62098,0.01692
1781.56137,0.01683
1779.50176,0.01684
1777.44215,0.01672
1775.38254,0.01660
1773.32293,0.01679
1771.26333,0.01723
1769.20372,0.01749
1767.14411,0.01749
1765.08450,0.01748
1763.02489,0.01746
1760.96528,0.01741
1758.90567,0.01744
1756.84607,0.01757
1754.78646,0.01785
1752.72685,0.01813
1750.66724,0.01839
1748.60763,0.01852
1746.54802,0.01858
1744.48841,0.01868
1742.42881,0.01872
1740.36920,0.01886
1738.30959,0.01926
1736.24998,0.01966
1734.19037,0.02008
1732.13076,0.02032
1730.07116,0.02025
1728.01155,0.02031
1725.95194,0.02067
1723.89233,0.02128
1721.83272,0.02186
1719.77311,0.02245
1717.71350,0.02356
1715.65390,0.02534
1713.59429,0.02736
1711.53468,0.02966
1709.47507,0.03272
1707.41546,0.03727
1705.35585,0.04395
1703.29624,0.05148
1701.23664,0.06133
1699.17703,0.07362
1697.11742,0.08181
1695.05781,0.08669
1692.99820,0.09028
1690.93859,0.09379
1688.87898,0.09827
1686.81938,0.10301
1684.75977,0.10942
1682.70016,0.11741
1680.64055,0.12378
1678.58094,0.12946
1676.52133,0.13599
1674.46173,0.14367
1672.40212,0.15063
1670.34251,0.15772
1668.28290,0.16582
1666.22329,0.17251
1664.16368,0.17859
1662.10407,0.18552
1660.04447,0.19193
1657.98486,0.19688
1655.92525,0.20086
1653.86564,0.20590
1651.80603,0.21149
1649.74642,0.21373
1647.68681,0.21532
1645.62721,0.21807
1643.56760,0.22034
1641.50799,0.22197
1639.44838,0.22370
1637.38877,0.22620
1635.32916,0.23032
1633.26955,0.23445
1631.20995,0.23781
1629.15034,0.24181
1627.09073,0.24639
1625.03112,0.25059
1622.97151,0.25408
1620.91190,0.25510
1618.85230,0.25230
1616.79269,0.24480
1614.73308,0.23340
1612.67347,0.22046
1610.61386,0.20604
1608.55425,0.19093
1606.49464,0.17670
1604.43504,0.16418
1602.37543,0.15332
1600.31582,0.14415
1598.25621,0.13660
1596.19660,0.13031
1594.13699,0.12496
1592.07738,0.12048
1590.01778,0.11669
1587.95817,0.11362
1585.89856,0.11134
1583.83895,0.10985
1581.77934,0.10904
1579.71973,0.10873
1577.66012,0.10891
1575.60052,0.10970
1573.54091,0.11067
1571.48130,0.11190
1569.42169,0.11438
1567.36208,0.11760
1565.30247,0.12085
1563.24287,0.12408
1561.18326,0.12753
1559.12365,0.13349
1557.06404,0.14028
1555.00443,0.14496
1552.94482,0.14960
1550.88521,0.15455
1548.82561,0.15950
1546.76600,0.16402
1544.70639,0.16833
1542.64678,0.17276
1540.58717,0.17793
1538.52756,0.18299
1536.46795,0.18582
1534.40835,0.18847
1532.34874,0.19222
1530.28913,0.19557
1528.22952,0.19838
1526.16991,0.20124
1524.11030,0.20388
1522.05069,0.20675
1519.99109,0.20981
1517.93148,0.21178
1515.87187,0.21234
1513.81226,0.21107
1511.75265,0.20791
1509.69304,0.20337
1507.63344,0.19694
1505.57383,0.18892
1503.51422,0.18225
1501.45461,0.17599
1499.39500,0.16872
1497.33539,0.16034
1495.27578,0.15177
1493.21618,0.14409
1491.15657,0.13635
1489.09696,0.12810
1487.03735,0.12103
1484.97774,0.11555
1482.91813,0.11107
1480.85852,0.10739
1478.79892,0.10474
1476.73931,0.10317
1474.67970,0.10257
1472.62009,0.10277
1470.56048,0.10316
1468.50087,0.10328
1466.44126,0.10334
1464.38166,0.10367
1462.32205,0.10431
1460.26244,0.10520
1458.20283,0.10690
1456.14322,0.10942
1454.08361,0.11086
1452.02401,0.11107
1449.96440,0.11062
1447.90479,0.10955
1445.84518,0.10780
1443.78557,0.10543
1441.72596,0.10275
1439.66635,0.10014
1437.60675,0.09751
1435.54714,0.09490
1433.48753,0.09278
1431.42792,0.09102
1429.36831,0.08960
1427.30870,0.08876
1425.24909,0.08852
1423.18949,0.08874
1421.12988,0.08918
1419.07027,0.08998
1417.01066,0.09105
1414.95105,0.09209
1412.89144,0.09303
1410.83183,0.09374
1408.77223,0.09418
1406.71262,0.09454
1404.65301,0.09482
1402.59340,0.09481
1400.53379,0.09453
1398.47418,0.09422
1396.41458,0.09400
1394.35497,0.09381
1392.29536,0.09358
1390.23575,0.09322
1388.17614,0.09272
1386.11653,0.09212
1384.05692,0.09149
1381.99732,0.09089
1379.93771,0.09029
1377.87810,0.08972
1375.81849,0.08908
1373.75888,0.08828
1371.69927,0.08742
1369.63966,0.08649
1367.58006,0.08518
1365.52045,0.08356
1363.46084,0.08196
1361.40123,0.08063
1359.34162,0.07954
1357.28201,0.07854
1355.22240,0.07765
1353.16280,0.07693
1351.10319,0.07640
1349.04358,0.07599
1346.98397,0.07568
1344.92436,0.07548
1342.86475,0.07537
1340.80515,0.07529
1338.74554,0.07515
1336.68593,0.07488
1334.62632,0.07454
1332.56671,0.07422
1330.50710,0.07389
1328.44749,0.07354
1326.38789,0.07326
1324.32828,0.07309
1322.26867,0.07296
1320.20906,0.07291
1318.14945,0.07298
1316.08984,0.07302
1314.03023,0.07293
1311.97063,0.07284
1309.91102,0.07274
1307.85141,0.07253
1305.79180,0.07222
1303.73219,0.07188
1301.67258,0.07158
1299.61297,0.07134
1297.55337,0.07107
1295.49376,0.07074
1293.43415,0.07042
1291.37454,0.07018
1289.31493,0.07002
1287.25532,0.06989
1285.19572,0.06974
1283.13611,0.06949
1281.07650,0.06923
1279.01689,0.06903
1276.95728,0.06887
1274.89767,0.06875
1272.83806,0.06872
1270.77846,0.06883
1268.71885,0.06919
1266.65924,0.06976
1264.59963,0.07040
1262.54002,0.07117
1260.48041,0.07219
1258.42080,0.07333
1256.36120,0.07456
1254.30159,0.07584
1252.24198,0.07705
1250.18237,0.07818
1248.12276,0.07928
1246.06315,0.08022
1244.00354,0.08085
1241.94394,0.08122
1239.88433,0.08148
1237.82472,0.08166
1235.76511,0.08176
1233.70550,0.08175
1231.64589,0.08155
1229.58629,0.08110
1227.52668,0.08052
1225.46707,0.07993
1223.40746,0.07928
1221.34785,0.07838
1219.28824,0.07728
1217.22863,0.07614
1215.16903,0.07493
1213.10942,0.07357
1211.04981,0.07213
1208.99020,0.07068
1206.93059,0.06918
1204.87098,0.06761
1202.81137,0.06603
1200.75177,0.06447
1198.69216,0.06296
1196.63255,0.06162
1194.57294,0.06054
1192.51333,0.05958
1190.45372,0.05864
1188.39411,0.05777
1186.33451,0.05709
1184.27490,0.05667
1182.21529,0.05646
1180.15568,0.05642
1178.09607,0.05661
1176.03646,0.05713
1173.97686,0.05787
1171.91725,0.05868
1169.85764,0.05947
1167.79803,0.06005
1165.73842,0.06032
1163.67881,0.06033
1161.61920,0.06006
1159.55960,0.05965
1157.49999,0.05899
1155.44038,0.05793
1153.38077,0.05677
1151.32116,0.05568
1149.26155,0.05457
1147.20194,0.05351
1145.14234,0.05256
1143.08273,0.05169
1141.02312,0.05096
1138.96351,0.05039
1136.90390,0.04995
1134.84429,0.04957
1132.78468,0.04920
1130.72508,0.04884
1128.66547,0.04849
1126.60586,0.04817
1124.54625,0.04789
1122.48664,0.04766
1120.42703,0.04746
1118.36743,0.04728
1116.30782,0.04719
1114.24821,0.04728
1112.18860,0.04745
1110.12899,0.04759
1108.06938,0.04779
1106.00977,0.04799
1103.95017,0.04815
1101.89056,0.04829
1099.83095,0.04845
1097.77134,0.04869
1095.71173,0.04918
1093.65212,0.04999
1091.59251,0.05107
1089.53291,0.05240
1087.47330,0.05396
1085.41369,0.05571
1083.35408,0.05760
1081.29447,0.05947
1079.23486,0.06123
1077.17525,0.06275
1075.11565,0.06393
1073.05604,0.06481
1070.99643,0.06548
1068.93682,0.06594
1066.87721,0.06622
1064.81760,0.06638
1062.75800,0.06634
1060.69839,0.06592
1058.63878,0.06525
1056.57917,0.06459
1054.51956,0.06403
1052.45995,0.06355
1050.40034,0.06315
1048.34074,0.06273
1046.28113,0.06205
1044.22152,0.06103
1042.16191,0.05979
1040.10230,0.05838
1038.04269,0.05685
1035.98308,0.05524
1033.92348,0.05350
1031.86387,0.05168
1029.80426,0.04987
1027.74465,0.04803
1025.68504,0.04622
1023.62543,0.04461
1021.56582,0.04331
1019.50622,0.04221
1017.44661,0.04120
1015.38700,0.04022
1013.32739,0.03927
1011.26778,0.03840
1009.20817,0.03758
1007.14857,0.03670
1005.08896,0.03589
1003.02935,0.03532
1000.96974,0.03497
998.91013,0.03465
996.85052,0.03416
994.79091,0.03360
992.73131,0.03308
990.67170,0.03261
988.61209,0.03218
986.55248,0.03178
984.49287,0.03139
982.43326,0.03108
980.37365,0.03089
978.31405,0.03077
976.25444,0.03069
974.19483,0.03074
972.13522,0.03102
970.07561,0.03142
968.01600,0.03184
965.95639,0.03225
963.89679,0.03260
961.83718,0.03278
959.77757,0.03268
957.71796,0.03236
955.65835,0.03197
953.59874,0.03160
951.53914,0.03128
949.47953,0.03098
947.41992,0.03070
945.36031,0.03044
943.30070,0.03024
941.24109,0.03015
939.18148,0.03008
937.12188,0.03005
935.06227,0.03010
933.00266,0.03001
930.94305,0.02971
928.88344,0.02942
926.82383,0.02921
924.76422,0.02885
922.70462,0.02835
920.64501,0.02802
918.58540,0.02789
916.52579,0.02772
914.46618,0.02754
912.40657,0.02753
910.34696,0.02758
908.28736,0.02761
906.22775,0.02769
904.16814,0.02777
902.10853,0.02783
900.04892,0.02787
897.98931,0.02770
895.92971,0.02729
893.87010,0.02692
891.81049,0.02667
889.75088,0.02640
887.69127,0.02606
885.63166,0.02581
883.57205,0.02578
881.51245,0.02565
879.45284,0.02531
877.39323,0.02509
875.33362,0.02505
873.27401,0.02500
871.21440,0.02502
869.15479,0.02510
867.09519,0.02510
865.03558,0.02508
862.97597,0.02506
860.91636,0.02500
858.85675,0.02494
856.79714,0.02500
854.73753,0.02520
852.67793,0.02541
850.61832,0.02559
848.55871,0.02572
846.49910,0.02579
844.43949,0.02589
842.37988,0.02611
840.32028,0.02639
838.26067,0.02671
836.20106,0.02703
834.14145,0.02739
832.08184,0.02776
830.02223,0.02800
827.96262,0.02814
825.90302,0.02827
823.84341,0.02846
821.78380,0.02864
819.72419,0.02867
817.66458,0.02873
815.60497,0.02903
813.54536,0.02942
811.48576,0.02969
809.42615,0.02993
807.36654,0.03016
805.30693,0.03028
803.24732,0.03054
801.18771,0.03108
799.12810,0.03152
797.06850,0.03176
795.00889,0.03198
792.94928,0.03227
790.88967,0.03268
788.83006,0.03324
786.77045,0.03373
784.71085,0.03405
782.65124,0.03449
780.59163,0.03511
778.53202,0.03569
776.47241,0.03615
774.41280,0.03652
772.35319,0.03674
770.29359,0.03687
768.23398,0.03705
766.17437,0.03720
764.11476,0.03724
762.05515,0.03737
759.99554,0.03761
757.93593,0.03785
755.87633,0.03812
753.81672,0.03846
751.75711,0.03884
749.69750,0.03919
747.63789,0.03952
745.57828,0.03990
743.51867,0.04020
741.45907,0.04027
739.39946,0.04040
737.33985,0.04078
735.28024,0.04122
733.22063,0.04173
731.16102,0.04259
729.10142,0.04360
727.04181,0.04458
724.98220,0.04563
722.92259,0.04676
720.86298,0.04801
718.80337,0.04938
716.74376,0.05065
714.68416,0.05177
712.62455,0.05287
710.56494,0.05404
708.50533,0.05534
706.44572,0.05664
704.38611,0.05784
702.32650,0.05894
700.26690,0.05966
698.20729,0.05982
696.14768,0.05962
694.08807,0.05935
692.02846,0.05906
689.96885,0.05874
687.90924,0.05856
685.84964,0.05855
683.79003,0.05857
681.73042,0.05861
679.67081,0.05864
677.61120,0.05859
675.55159,0.05862
673.49199,0.05879
671.43238,0.05890
669.37277,0.05891
667.31316,0.05893
665.25355,0.05879
663.19394,0.05862
661.13433,0.05854
659.07473,0.05855
657.01512,0.05866
654.95551,0.05886
652.89590,0.05901
650.83629,0.05910
648.77668,0.05924
646.71707,0.05948
644.65747,0.05983
642.59786,0.06018
640.53825,0.06048
638.47864,0.06078
636.41903,0.06102
634.35942,0.06104
632.29981,0.06098
630.24021,0.06112
628.18060,0.06123
626.12099,0.06116
624.06138,0.06104
622.00177,0.06088
619.94216,0.06064
617.88256,0.06033
615.82295,0.06013
613.76334,0.05999
611.70373,0.05955
609.64412,0.05909
607.58451,0.05899
605.52490,0.05884
603.46530,0.05844
601.40569,0.05794
599.34608,0.05749
597.28647,0.05729
595.22686,0.05721
593.16725,0.05717
591.10764,0.05719
589.04804,0.05713
586.98843,0.05705
584.92882,0.05693
582.86921,0.05671
580.80960,0.05651
578.74999,0.05650
576.69039,0.05669
574.63078,0.05665
572.57117,0.05639
570.51156,0.05639
568.45195,0.05641
566.39234,0.05618
564.33273,0.05601
562.27313,0.05589
560.21352,0.05577
558.15391,0.05573
556.09430,0.05567
554.03469,0.05559
551.97508,0.05553
549.91547,0.05545
547.85587,0.05535
545.79626,0.05514
543.73665,0.05481
541.67704,0.05465
539.61743,0.05459
537.55782,0.05441
535.49821,0.05431
533.43861,0.05429
531.37900,0.05430
529.31939,0.05447
527.25978,0.05451
525.20017,0.05427
523.14056,0.05396
521.08096,0.05358
519.02135,0.05314
516.96174,0.05280
514.90213,0.05251
512.84252,0.05214
510.78291,0.05164
508.72330,0.05123
506.66370,0.05102
504.60409,0.05086
502.54448,0.05077
500.48487,0.05050
498.42526,0.04974
496.36565,0.04902
494.30604,0.04884
492.24644,0.04894
490.18683,0.04898
488.12722,0.04866
486.06761,0.04803
484.00800,0.04747
481.94839,0.04705
479.88878,0.04665
477.82918,0.04621
475.76957,0.04575
473.70996,0.04529
471.65035,0.04490
469.59074,0.04488
467.53113,0.04524
465.47153,0.04566
463.41192,0.04577
461.35231,0.04540
459.29270,0.04490
457.23309,0.04467
455.17348,0.04466
453.11387,0.04448
451.05427,0.04407
448.99466,0.04371
446.93505,0.04334
444.87544,0.04304
442.81583,0.04276
440.75622,0.04205
438.69661,0.04135
436.63701,0.04116
434.57740,0.04106
432.51779,0.04100
430.45818,0.04105
428.39857,0.04059
426.33896,0.03967
424.27935,0.03895
422.21975,0.03836
420.16014,0.03767
418.10053,0.03715
416.04092,0.03673
413.98131,0.03624
411.92170,0.03587
409.86210,0.03546
407.80249,0.03482
405.74288,0.03419
403.68327,0.03385
401.62366,0.03352
399.56405,0.03328
