3997.70013,0.07719
3995.64052,0.07813
3993.58092,0.07938
3991.52131,0.07905
3989.46170,0.07873
3987.40209,0.07971
3985.34248,0.08008
3983.28287,0.07900
3981.22327,0.07810
3979.16366,0.07807
3977.10405,0.07826
3975.04444,0.07833
3972.98483,0.07842
3970.92522,0.07838
3968.86561,0.07832
3966.80601,0.07856
3964.74640,0.07882
3962.68679,0.07869
3960.62718,0.07836
3958.56757,0.07842
3956.50796,0.07891
3954.44835,0.07930
3952.38875,0.07934
3950.32914,0.07936
3948.26953,0.07950
3946.20992,0.07939
3944.15031,0.07883
3942.09070,0.07794
3940.03109,0.07711
3937.97149,0.07691
3935.91188,0.07730
3933.85227,0.07772
3931.79266,0.07806
3929.73305,0.07821
3927.67344,0.07785
3925.61384,0.07726
3923.55423,0.07679
3921.49462,0.07641
3919.43501,0.07619
3917.37540,0.07613
3915.31579,0.07576
3913.25618,0.07518
3911.19658,0.07533
3909.13697,0.07614
3907.07736,0.07656
3905.01775,0.07665
3902.95814,0.07671
3900.89853,0.07642
3898.83892,0.07618
3896.77932,0.07628
3894.71971,0.07638
3892.66010,0.07620
3890.60049,0.07572
3888.54088,0.07519
3886.48127,0.07495
3884.42166,0.07503
3882.36206,0.07466
3880.30245,0.07434
3878.24284,0.07454
3876.18323,0.07443
3874.12362,0.07449
3872.06401,0.07500
3870.00441,0.07490
3867.94480,0.07439
3865.88519,0.07435
3863.82558,0.07441
3861.76597,0.07431
3859.70636,0.07411
3857.64675,0.07347
3855.58715,0.07257
3853.52754,0.07264
3851.46793,0.07391
3849.40832,0.07441
3847.34871,0.07370
3845.28910,0.07275
3843.22949,0.07276
3841.16989,0.07340
3839.11028,0.07377
3837.05067,0.07404
3834.99106,0.07412
3832.93145,0.07375
3830.87184,0.07324
3828.81223,0.07303
3826.75263,0.07312
3824.69302,0.07298
3822.63341,0.07264
3820.57380,0.07290
3818.51419,0.07326
3816.45458,0.07320
3814.39498,0.07334
3812.33537,0.07339
3810.27576,0.07300
3808.21615,0.07253
3806.15654,0.07231
3804.09693,0.07209
3802.03732,0.07166
3799.97772,0.07107
3797.91811,0.07069
3795.85850,0.07087
3793.79889,0.07132
3791.73928,0.07168
3789.67967,0.07200
3787.62006,0.07201
3785.56046,0.07172
3783.50085,0.07170
3781.44124,0.07224
3779.38163,0.07269
3777.32202,0.07219
3775.26241,0.07136
3773.20280,0.07105
3771.14320,0.07085
3769.08359,0.07049
3767.02398,0.07029
3764.96437,0.07005
3762.90476,0.06958
3760.84515,0.06936
3758.78555,0.06978
3756.72594,0.07033
3754.66633,0.07023
3752.60672,0.06955
3750.54711,0.06895
3748.48750,0.06860
3746.42789,0.06865
3744.36829,0.06914
3742.30868,0.06914
3740.24907,0.06894
3738.18946,0.06909
3736.12985,0.06895
3734.07024,0.06810
3732.01063,0.06721
3729.95103,0.06667
3727.89142,0.06655
3725.83181,0.06664
3723.77220,0.06640
3721.71259,0.06596
3719.65298,0.06618
3717.59337,0.06692
3715.53377,0.06692
3713.47416,0.06615
3711.41455,0.06559
3709.35494,0.06513
3707.29533,0.06527
3705.23572,0.06651
3703.17612,0.06750
3701.11651,0.06739
3699.05690,0.06675
3696.99729,0.06592
3694.93768,0.06520
3692.87807,0.06492
3690.81846,0.06513
3688.75886,0.06604
3686.69925,0.06705
3684.63964,0.06705
3682.58003,0.06602
3680.52042,0.06499
3678.46081,0.06475
3676.40120,0.06536
3674.34160,0.06601
3672.28199,0.06576
3670.22238,0.06578
3668.16277,0.06621
3666.10316,0.06619
3664.04355,0.06591
3661.98394,0.06564
3659.92434,0.06551
3657.86473,0.06523
3655.80512,0.06481
3653.74551,0.06450
3651.68590,0.06399
3649.62629,0.06372
3647.56669,0.06456
3645.50708,0.06538
3643.44747,0.06586
3641.38786,0.06643
3639.32825,0.06681
3637.26864,0.06689
3635.20903,0.06666
3633.14943,0.06603
3631.08982,0.06574
3629.03021,0.06669
3626.97060,0.06747
3624.91099,0.06720
3622.85138,0.06682
3620.79177,0.06665
3618.73217,0.06657
3616.67256,0.06646
3614.61295,0.06674
3612.55334,0.06708
3610.49373,0.06693
3608.43412,0.06710
3606.37451,0.06740
3604.31491,0.06744
3602.25530,0.06768
3600.19569,0.06783
3598.13608,0.06792
3596.07647,0.06841
3594.01686,0.06901
3591.95726,0.06904
3589.89765,0.06859
3587.83804,0.06819
3585.77843,0.06845
3583.71882,0.06928
3581.65921,0.06976
3579.59960,0.06962
3577.54000,0.06944
3575.48039,0.06969
3573.42078,0.07043
3571.36117,0.07107
3569.30156,0.07113
3567.24195,0.07106
3565.18234,0.07134
3563.12274,0.07176
3561.06313,0.07175
3559.00352,0.07143
3556.94391,0.07170
3554.88430,0.07242
3552.82469,0.07282
3550.76508,0.07295
3548.70548,0.07315
3546.64587,0.07300
3544.58626,0.07285
3542.52665,0.07335
3540.46704,0.07398
3538.40743,0.07440
3536.34783,0.07477
3534.28822,0.07537
3532.22861,0.07586
3530.16900,0.07582
3528.10939,0.07552
3526.04978,0.07523
3523.99017,0.07545
3521.93057,0.07666
3519.87096,0.07804
3517.81135,0.07830
3515.75174,0.07784
3513.69213,0.07780
3511.63252,0.07838
3509.57291,0.07928
3507.51331,0.07983
3505.45370,0.07946
3503.39409,0.07868
3501.33448,0.07837
3499.27487,0.07883
3497.21526,0.08000
3495.15565,0.08115
3493.09605,0.08151
3491.03644,0.08151
3488.97683,0.08180
3486.91722,0.08228
3484.85761,0.08275
3482.79800,0.08354
3480.73840,0.08449
3478.67879,0.08478
3476.61918,0.08469
3474.55957,0.08512
3472.49996,0.08592
3470.44035,0.08645
3468.38074,0.08652
3466.32114,0.08654
3464.26153,0.08702
3462.20192,0.08755
3460.14231,0.08772
3458.08270,0.08763
3456.02309,0.08754
3453.96348,0.08788
3451.90388,0.08872
3449.84427,0.08971
3447.78466,0.09046
3445.72505,0.09089
3443.66544,0.09119
3441.60583,0.09140
3439.54622,0.09161
3437.48662,0.09174
3435.42701,0.09185
3433.36740,0.09253
3431.30779,0.09366
3429.24818,0.09423
3427.18857,0.09405
3425.12897,0.09376
3423.06936,0.09403
3421.00975,0.09490
3418.95014,0.09561
3416.89053,0.09603
3414.83092,0.09675
3412.77131,0.09731
3410.71171,0.09733
3408.65210,0.09731
3406.59249,0.09752
3404.53288,0.09780
3402.47327,0.09791
3400.41366,0.09821
3398.35405,0.09892
3396.29445,0.09940
3394.23484,0.09920
3392.17523,0.09903
3390.11562,0.09969
3388.05601,0.10066
3385.99640,0.10112
3383.93679,0.10136
3381.87719,0.10194
3379.81758,0.10253
3377.75797,0.10287
3375.69836,0.10331
3373.63875,0.10428
3371.57914,0.10535
3369.51954,0.10571
3367.45993,0.10589
3365.40032,0.10625
3363.34071,0.10657
3361.28110,0.10723
3359.22149,0.10823
3357.16188,0.10924
3355.10228,0.11005
3353.04267,0.11059
3350.98306,0.11114
3348.92345,0.11161
3346.86384,0.11206
3344.80423,0.11314
3342.74462,0.11479
3340.68502,0.11635
3338.62541,0.11766
3336.56580,0.11867
3334.50619,0.11942
3332.44658,0.12047
3330.38697,0.12188
3328.32736,0.12312
3326.26776,0.12428
3324.20815,0.12560
3322.14854,0.12688
3320.08893,0.12845
3318.02932,0.13070
3315.96971,0.13309
3313.91011,0.13522
3311.85050,0.13724
3309.79089,0.13919
3307.73128,0.14096
3305.67167,0.14279
3303.61206,0.14479
3301.55245,0.14679
3299.49285,0.14885
3297.43324,0.15108
3295.37363,0.15343
3293.31402,0.15547
3291.25441,0.15735
3289.19480,0.15956
3287.13519,0.16186
3285.07559,0.16378
3283.01598,0.16541
3280.95637,0.16703
3278.89676,0.16862
3276.83715,0.16982
3274.77754,0.17045
3272.71793,0.17069
3270.65833,0.17088
3268.59872,0.17124
3266.53911,0.17160
3264.47950,0.17127
3262.41989,0.17014
3260.36028,0.16897
3258.30068,0.16825
3256.24107,0.16774
3254.18146,0.16696
3252.12185,0.16575
3250.06224,0.16436
3248.00263,0.16303
3245.94302,0.16157
3243.88342,0.15962
3241.82381,0.15798
3239.76420,0.15745
3237.70459,0.15709
3235.64498,0.15579
3233.58537,0.15396
3231.52576,0.15242
3229.46616,0.15119
3227.40655,0.14974
3225.34694,0.14831
3223.28733,0.14772
3221.22772,0.14751
3219.16811,0.14682
3217.10850,0.14590
3215.04890,0.14487
3212.98929,0.14379
3210.92968,0.14317
3208.87007,0.14285
3206.81046,0.14236
3204.75085,0.14177
3202.69125,0.14123
3200.63164,0.14033
3198.57203,0.13876
3196.51242,0.13732
3194.45281,0.13676
3192.39320,0.13644
3190.33359,0.13559
3188.27399,0.13452
3186.21438,0.13376
3184.15477,0.13302
3182.09516,0.13200
3180.03555,0.13107
3177.97594,0.13002
3175.91633,0.12855
3173.85673,0.12732
3171.79712,0.12700
3169.73751,0.12698
3167.67790,0.12623
3165.61829,0.12482
3163.55868,0.12346
3161.49907,0.12259
3159.43947,0.12174
3157.37986,0.12062
3155.32025,0.11951
3153.26064,0.11846
3151.20103,0.11771
3149.14142,0.11726
3147.08182,0.11674
3145.02221,0.11599
3142.96260,0.11491
3140.90299,0.11373
3138.84338,0.11292
3136.78377,0.11246
3134.72416,0.11183
3132.66456,0.11078
3130.60495,0.10958
3128.54534,0.10871
3126.48573,0.10839
3124.42612,0.10836
3122.36651,0.10827
3120.30690,0.10786
3118.24730,0.10735
3116.18769,0.10703
3114.12808,0.10697
3112.06847,0.10717
3110.00886,0.10727
3107.94925,0.10665
3105.88965,0.10547
3103.83004,0.10490
3101.77043,0.10559
3099.71082,0.10631
3097.65121,0.10624
3095.59160,0.10604
3093.53199,0.10612
3091.47239,0.10644
3089.41278,0.10667
3087.35317,0.10651
3085.29356,0.10617
3083.23395,0.10589
3081.17434,0.10593
3079.11473,0.10629
3077.05513,0.10671
3074.99552,0.10699
3072.93591,0.10721
3070.87630,0.10749
3068.81669,0.10753
3066.75708,0.10705
3064.69747,0.10649
3062.63787,0.10632
3060.57826,0.10625
3058.51865,0.10582
3056.45904,0.10512
3054.39943,0.10461
3052.33982,0.10433
3050.28022,0.10395
3048.22061,0.10355
3046.16100,0.10313
3044.10139,0.10241
3042.04178,0.10156
3039.98217,0.10086
3037.92256,0.10039
3035.86296,0.10010
3033.80335,0.09995
3031.74374,0.09996
3029.68413,0.09962
3027.62452,0.09855
3025.56491,0.09737
3023.50530,0.09667
3021.44570,0.09642
3019.38609,0.09612
3017.32648,0.09553
3015.26687,0.09498
3013.20726,0.09444
3011.14765,0.09375
3009.08804,0.09322
3007.02844,0.09300
3004.96883,0.09290
3002.90922,0.09276
3000.84961,0.09263
2998.79000,0.09278
2996.73039,0.09328
2994.67079,0.09362
2992.61118,0.09369
2990.55157,0.09377
2988.49196,0.09403
2986.43235,0.09442
2984.37274,0.09497
2982.31313,0.09581
2980.25353,0.09668
2978.19392,0.09730
2976.13431,0.09784
2974.07470,0.09863
2972.01509,0.09974
2969.95548,0.10099
2967.89587,0.10184
2965.83627,0.10216
2963.77666,0.10251
2961.71705,0.10307
2959.65744,0.10356
2957.59783,0.10375
2955.53822,0.10338
2953.47861,0.10257
2951.41901,0.10181
2949.35940,0.10157
2947.29979,0.10167
2945.24018,0.10169
2943.18057,0.10188
2941.12096,0.10240
2939.06136,0.10299
2937.00175,0.10358
2934.94214,0.10422
2932.88253,0.10501
2930.82292,0.10579
2928.76331,0.10641
2926.70370,0.10692
2924.64410,0.10708
2922.58449,0.10657
2920.52488,0.10555
2918.46527,0.10433
2916.40566,0.10304
2914.34605,0.10178
2912.28644,0.10078
2910.22684,0.10000
2908.16723,0.09918
2906.10762,0.09833
2904.04801,0.09759
2901.98840,0.09695
2899.92879,0.09630
2897.86918,0.09567
2895.80958,0.09526
2893.74997,0.09493
2891.69036,0.09449
2889.63075,0.09422
2887.57114,0.09435
2885.51153,0.09462
2883.45193,0.09474
2881.39232,0.09496
2879.33271,0.09548
2877.27310,0.09594
2875.21349,0.09619
2873.15388,0.09641
2871.09427,0.09638
2869.03467,0.09610
2866.97506,0.09576
2864.91545,0.09528
2862.85584,0.09447
2860.79623,0.09364
2858.73662,0.09319
2856.67701,0.09278
2854.61741,0.09239
2852.55780,0.09218
2850.49819,0.09168
2848.43858,0.09068
2846.37897,0.08970
2844.31936,0.08903
2842.25975,0.08838
2840.20015,0.08765
2838.14054,0.08693
2836.08093,0.08624
2834.02132,0.08580
2831.96171,0.08554
2829.90210,0.08523
2827.84250,0.08478
2825.78289,0.08443
2823.72328,0.08429
2821.66367,0.08419
2819.60406,0.08387
2817.54445,0.08339
2815.48484,0.08310
2813.42524,0.08302
2811.36563,0.08284
2809.30602,0.08262
2807.24641,0.08255
2805.18680,0.08250
2803.12719,0.08227
2801.06758,0.08188
2799.00798,0.08156
2796.94837,0.08153
2794.88876,0.08165
2792.82915,0.08153
2790.76954,0.08114
2788.70993,0.08088
2786.65032,0.08089
2784.59072,0.08088
2782.53111,0.08060
2780.47150,0.08027
2778.41189,0.08008
2776.35228,0.07996
2774.29267,0.07981
2772.23307,0.07972
2770.17346,0.07976
2768.11385,0.07966
2766.05424,0.07936
2763.99463,0.07919
2761.93502,0.07918
2759.87541,0.07916
2757.81581,0.07899
2755.75620,0.07872
2753.69659,0.07864
2751.63698,0.07872
2749.57737,0.07867
2747.51776,0.07844
2745.45815,0.07805
2743.39855,0.07766
2741.33894,0.07749
2739.27933,0.07746
2737.21972,0.07737
2735.16011,0.07720
2733.10050,0.07697
2731.04089,0.07670
2728.98129,0.07663
2726.92168,0.07672
2724.86207,0.07659
2722.80246,0.07637
2720.74285,0.07622
2718.68324,0.07583
2716.62364,0.07525
2714.56403,0.07497
2712.50442,0.07501
2710.44481,0.07490
2708.38520,0.07455
2706.32559,0.07447
2704.26598,0.07469
2702.20638,0.07460
2700.14677,0.07409
2698.08716,0.07368
2696.02755,0.07362
2693.96794,0.07373
2691.90833,0.07374
2689.84872,0.07353
2687.78912,0.07323
2685.72951,0.07297
2683.66990,0.07273
2681.61029,0.07261
2679.55068,0.07245
2677.49107,0.07234
2675.43146,0.07241
2673.37186,0.07242
2671.31225,0.07227
2669.25264,0.07196
2667.19303,0.07163
2665.13342,0.07159
2663.07381,0.07170
2661.01421,0.07172
2658.95460,0.07158
2656.89499,0.07137
2654.83538,0.07138
2652.77577,0.07157
2650.71616,0.07153
2648.65655,0.07127
2646.59695,0.07102
2644.53734,0.07069
2642.47773,0.07022
2640.41812,0.07000
2638.35851,0.07007
2636.29890,0.06987
2634.23929,0.06944
2632.17969,0.06930
2630.12008,0.06926
2628.06047,0.06890
2626.00086,0.06823
2623.94125,0.06765
2621.88164,0.06747
2619.82203,0.06762
2617.76243,0.06753
2615.70282,0.06715
2613.64321,0.06703
2611.58360,0.06704
2609.52399,0.06696
2607.46438,0.06700
2605.40478,0.06705
2603.34517,0.06694
2601.28556,0.06670
2599.22595,0.06626
2597.16634,0.06580
2595.10673,0.06561
2593.04712,0.06539
2590.98752,0.06501
2588.92791,0.06458
2586.86830,0.06421
2584.80869,0.06388
2582.74908,0.06360
2580.68947,0.06380
2578.62986,0.06431
2576.57026,0.06430
2574.51065,0.06407
2572.45104,0.06429
2570.39143,0.06466
2568.33182,0.06477
2566.27221,0.06458
2564.21260,0.06400
2562.15300,0.06305
2560.09339,0.06255
2558.03378,0.06273
2555.97417,0.06271
2553.91456,0.06263
2551.85495,0.06267
2549.79535,0.06215
2547.73574,0.06147
2545.67613,0.06143
2543.61652,0.06148
2541.55691,0.06125
2539.49730,0.06136
2537.43769,0.06165
2535.37809,0.06155
2533.31848,0.06116
2531.25887,0.06090
2529.19926,0.06085
2527.13965,0.06084
2525.08004,0.06079
2523.02043,0.06096
2520.96083,0.06122
2518.90122,0.06127
2516.84161,0.06117
2514.78200,0.06087
2512.72239,0.06051
2510.66278,0.06010
2508.60317,0.05950
2506.54357,0.05928
2504.48396,0.05965
2502.42435,0.05983
2500.36474,0.05933
2498.30513,0.05881
2496.24552,0.05901
2494.18592,0.05944
2492.12631,0.05946
2490.06670,0.05921
2488.00709,0.05899
2485.94748,0.05868
2483.88787,0.05820
2481.82826,0.05809
2479.76866,0.05831
2477.70905,0.05821
2475.64944,0.05804
2473.58983,0.05834
2471.53022,0.05858
2469.47061,0.05825
2467.41100,0.05784
2465.35140,0.05780
2463.29179,0.05787
2461.23218,0.05766
2459.17257,0.05721
2457.11296,0.05695
2455.05335,0.05721
2452.99374,0.05779
2450.93414,0.05801
2448.87453,0.05770
2446.81492,0.05738
2444.75531,0.05726
2442.69570,0.05715
2440.63609,0.05696
2438.57649,0.05683
2436.51688,0.05710
2434.45727,0.05721
2432.39766,0.05648
2430.33805,0.05575
2428.27844,0.05585
2426.21883,0.05646
2424.15923,0.05696
2422.09962,0.05695
2420.04001,0.05640
2417.98040,0.05583
2415.92079,0.05581
2413.86118,0.05610
2411.80157,0.05602
2409.74197,0.05545
2407.68236,0.05499
2405.62275,0.05506
2403.56314,0.05540
2401.50353,0.05561
2399.44392,0.05546
2397.38431,0.05508
2395.32471,0.05498
2393.26510,0.05527
2391.20549,0.05536
2389.14588,0.05525
2387.08627,0.05519
2385.02666,0.05507
2382.96706,0.05499
2380.90745,0.05509
2378.84784,0.05512
2376.78823,0.05507
2374.72862,0.05504
2372.66901,0.05487
2370.60940,0.05455
2368.54980,0.05438
2366.49019,0.05454
2364.43058,0.05480
2362.37097,0.05488
2360.31136,0.05493
2358.25175,0.05484
2356.19214,0.05455
2354.13254,0.05447
2352.07293,0.05466
2350.01332,0.05477
2347.95371,0.05457
2345.89410,0.05422
2343.83449,0.05391
2341.77488,0.05362
2339.71528,0.05371
2337.65567,0.05433
2335.59606,0.05473
2333.53645,0.05458
2331.47684,0.05451
2329.41723,0.05467
2327.35763,0.05507
2325.29802,0.05566
2323.23841,0.05578
2321.17880,0.05548
2319.11919,0.05506
2317.05958,0.05445
2314.99997,0.05415
2312.94037,0.05425
2310.88076,0.05401
2308.82115,0.05334
2306.76154,0.05284
2304.70193,0.05260
2302.64232,0.05235
2300.58271,0.05214
2298.52311,0.05218
2296.46350,0.05228
2294.40389,0.05179
2292.34428,0.05095
2290.28467,0.05081
2288.22506,0.05115
2286.16545,0.05112
2284.10585,0.05050
2282.04624,0.04989
2279.98663,0.04963
2277.92702,0.04924
2275.86741,0.04885
2273.80780,0.04877
2271.74820,0.04844
2269.68859,0.04768
2267.62898,0.04717
2265.56937,0.04718
2263.50976,0.04709
2261.45015,0.04652
2259.39054,0.04603
2257.33094,0.04633
2255.27133,0.04689
2253.21172,0.04698
2251.15211,0.04641
2249.09250,0.04565
2247.03289,0.04565
2244.97328,0.04616
2242.91368,0.04621
2240.85407,0.04604
2238.79446,0.04601
2236.73485,0.04559
2234.67524,0.04466
2232.61563,0.04376
2230.55602,0.04342
2228.49642,0.04370
2226.43681,0.04398
2224.37720,0.04390
2222.31759,0.04385
2220.25798,0.04403
2218.19837,0.04393
2216.13877,0.04325
2214.07916,0.04281
2212.01955,0.04285
2209.95994,0.04241
2207.90033,0.04195
2205.84072,0.04216
2203.78111,0.04170
2201.72151,0.04025
2199.66190,0.03942
2197.60229,0.03976
2195.54268,0.04054
2193.48307,0.04092
2191.42346,0.04087
2189.36385,0.04081
2187.30425,0.04003
2185.24464,0.03795
2183.18503,0.03599
2181.12542,0.03591
2179.06581,0.03762
2177.00620,0.03929
2174.94659,0.03966
2172.88699,0.03932
2170.82738,0.03889
2168.76777,0.03855
2166.70816,0.03821
2164.64855,0.03826
2162.58894,0.03857
2160.52934,0.03709
2158.46973,0.03396
2156.41012,0.03284
2154.35051,0.03407
2152.29090,0.03507
2150.23129,0.03483
2148.17168,0.03417
2146.11208,0.03482
2144.05247,0.03660
2141.99286,0.03754
2139.93325,0.03748
2137.87364,0.03742
2135.81403,0.03738
2133.75442,0.03747
2131.69482,0.03816
2129.63521,0.03890
2127.57560,0.03891
2125.51599,0.03878
2123.45638,0.03928
2121.39677,0.04009
2119.33716,0.04063
2117.27756,0.04088
2115.21795,0.04122
2113.15834,0.04157
2111.09873,0.04147
2109.03912,0.04119
2106.97951,0.04088
2104.91991,0.04031
2102.86030,0.03982
2100.80069,0.03964
2098.74108,0.03978
2096.68147,0.03983
2094.62186,0.03918
2092.56225,0.03859
2090.50265,0.03886
2088.44304,0.03946
2086.38343,0.03948
2084.32382,0.03924
2082.26421,0.03942
2080.20460,0.03926
2078.14499,0.03848
2076.08539,0.03811
2074.02578,0.03820
2071.96617,0.03823
2069.90656,0.03845
2067.84695,0.03866
2065.78734,0.03832
2063.72773,0.03772
2061.66813,0.03717
2059.60852,0.03675
2057.54891,0.03672
2055.48930,0.03695
2053.42969,0.03695
2051.37008,0.03631
2049.31048,0.03514
2047.25087,0.03477
2045.19126,0.03505
2043.13165,0.03424
2041.07204,0.03303
2039.01243,0.03254
2036.95282,0.03224
2034.89322,0.03152
2032.83361,0.03086
2030.77400,0.03075
2028.71439,0.03110
2026.65478,0.03117
2024.59517,0.03099
2022.53556,0.03181
2020.47596,0.03245
2018.41635,0.03088
2016.35674,0.02899
2014.29713,0.02899
2012.23752,0.03000
2010.17791,0.03081
2008.11830,0.03093
2006.05870,0.03020
2003.99909,0.02904
2001.93948,0.02897
1999.87987,0.03035
1997.82026,0.03170
1995.76065,0.03193
1993.70105,0.03109
1991.64144,0.03055
1989.58183,0.03043
1987.52222,0.03014
1985.46261,0.03055
1983.40300,0.03134
1981.34339,0.03191
1979.28379,0.03162
1977.22418,0.03007
1975.16457,0.02870
1973.10496,0.02855
1971.04535,0.02946
1968.98574,0.02973
1966.92613,0.02850
1964.86653,0.02767
1962.80692,0.02786
1960.74731,0.02782
1958.68770,0.02788
1956.62809,0.02874
1954.56848,0.02987
1952.50887,0.03078
1950.44927,0.03103
1948.38966,0.03101
1946.33005,0.03083
1944.27044,0.03053
1942.21083,0.03092
1940.15122,0.03110
1938.09162,0.03044
1936.03201,0.02996
1933.97240,0.03033
1931.91279,0.03112
1929.85318,0.03158
1927.79357,0.03154
1925.73396,0.03142
1923.67436,0.03166
1921.61475,0.03194
1919.55514,0.03182
1917.49553,0.03159
1915.43592,0.03143
1913.37631,0.03126
1911.31670,0.03101
1909.25710,0.03075
1907.19749,0.03094
1905.13788,0.03149
1903.07827,0.03165
1901.01866,0.03128
1898.95905,0.03083
1896.89944,0.03067
1894.83984,0.03087
1892.78023,0.03119
1890.72062,0.03118
1888.66101,0.03064
1886.60140,0.03007
1884.54179,0.02991
1882.48219,0.02995
1880.42258,0.02991
1878.36297,0.02966
1876.30336,0.02950
1874.24375,0.02961
1872.18414,0.02960
1870.12453,0.02953
1868.06493,0.02966
1866.00532,0.02954
1863.94571,0.02932
1861.88610,0.02919
1859.82649,0.02887
1857.76688,0.02867
1855.70727,0.02873
1853.64767,0.02887
1851.58806,0.02888
1849.52845,0.02863
1847.46884,0.02827
1845.40923,0.02801
1843.34962,0.02816
1841.29002,0.02842
1839.23041,0.02824
1837.17080,0.02780
1835.11119,0.02762
1833.05158,0.02775
1830.99197,0.02784
1828.93236,0.02766
1826.87276,0.02740
1824.81315,0.02736
1822.75354,0.02749
1820.69393,0.02737
1818.63432,0.02694
1816.57471,0.02666
1814.51510,0.02671
1812.45550,0.02678
1810.39589,0.02661
1808.33628,0.02621
1806.27667,0.02587
1804.21706,0.02586
1802.15745,0.02596
1800.09784,0.02596
1798.03824,0.02586
1795.97863,0.02553
1793.91902,0.02500
1791.85941,0.02465
1789.79980,0.02463
1787.74019,0.02479
1785.68059,0.02489
1783.62098,0.02464
1781.56137,0.02409
1779.50176,0.02360
1777.44215,0.02340
1775.38254,0.02329
1773.32293,0.02303
1771.26333,0.02272
1769.20372,0.02264
1767.14411,0.02268
1765.08450,0.02271
1763.02489,0.02264
1760.96528,0.02247
1758.90567,0.02233
1756.84607,0.02231
1754.78646,0.02221
1752.72685,0.02185
1750.66724,0.02150
1748.60763,0.02131
1746.54802,0.02127
1744.48841,0.02121
1742.42881,0.02099
1740.36920,0.02069
1738.30959,0.02060
1736.24998,0.02070
1734.19037,0.02049
1732.13076,0.01986
1730.07116,0.01936
1728.01155,0.01906
1725.95194,0.01872
1723.89233,0.01852
1721.83272,0.01854
1719.77311,0.01866
1717.71350,0.01898
1715.65390,0.01952
1713.59429,0.02016
1711.53468,0.02116
1709.47507,0.02287
1707.41546,0.02560
1705.35585,0.02972
1703.29624,0.03450
1701.23664,0.04081
1699.17703,0.04862
1697.11742,0.05363
1695.05781,0.05628
1692.99820,0.05795
1690.93859,0.05942
1688.87898,0.06128
1686.81938,0.06324
1684.75977,0.06619
1682.70016,0.07024
1680.64055,0.07360
1678.58094,0.07647
1676.52133,0.07969
1674.46173,0.08367
1672.40212,0.08739
1670.34251,0.09122
1668.28290,0.09555
1666.22329,0.09904
1664.16368,0.10213
1662.10407,0.10574
1660.04447,0.10921
1657.98486,0.11197
1655.92525,0.11418
1653.86564,0.11725
1651.80603,0.12116
1649.74642,0.12291
1647.68681,0.12428
1645.62721,0.12674
1643.56760,0.12885
1641.50799,0.13029
1639.44838,0.13163
1637.38877,0.13340
1635.32916,0.13654
1633.26955,0.14000
1631.20995,0.14278
1629.15034,0.14591
1627.09073,0.14968
1625.03112,0.15359
1622.97151,0.15771
1620.91190,0.16105
1618.85230,0.16295
1616.79269,0.16412
1614.73308,0.16395
1612.67347,0.16162
1610.61386,0.15754
1608.55425,0.15238
1606.49464,0.14666
1604.43504,0.14054
1602.37543,0.13410
1600.31582,0.12763
1598.25621,0.12136
1596.19660,0.11536
1594.13699,0.10970
1592.07738,0.10442
1590.01778,0.09948
1587.95817,0.09497
1585.89856,0.09107
1583.83895,0.08785
1581.77934,0.08518
1579.71973,0.08293
1577.66012,0.08099
1575.60052,0.07963
1573.54091,0.07911
1571.48130,0.07907
1569.42169,0.07957
1567.36208,0.08056
1565.30247,0.08200
1563.24287,0.08367
1561.18326,0.08534
1559.12365,0.08831
1557.06404,0.09228
1555.00443,0.09537
1552.94482,0.09840
1550.88521,0.10154
1548.82561,0.10464
1546.76600,0.10743
1544.70639,0.11006
1542.64678,0.11280
1540.58717,0.11613
1538.52756,0.11974
1536.46795,0.12205
1534.40835,0.12418
1532.34874,0.12711
1530.28913,0.12988
1528.22952,0.13235
1526.16991,0.13499
1524.11030,0.13749
1522.05069,0.14020
1519.99109,0.14328
1517.93148,0.14594
1515.87187,0.14820
1513.81226,0.14970
1511.75265,0.15025
1509.69304,0.15005
1507.63344,0.14930
1505.57383,0.14813
1503.51422,0.14643
1501.45461,0.14431
1499.39500,0.14168
1497.33539,0.13838
1495.27578,0.13459
1493.21618,0.13065
1491.15657,0.12635
1489.09696,0.12168
1487.03735,0.11701
1484.97774,0.11244
1482.91813,0.10821
1480.85852,0.10458
1478.79892,0.10163
1476.73931,0.09920
1474.67970,0.09730
1472.62009,0.09612
1470.56048,0.09540
1468.50087,0.09474
1466.44126,0.09402
1464.38166,0.09340
1462.32205,0.09302
1460.26244,0.09285
1458.20283,0.09333
1456.14322,0.09484
1454.08361,0.09602
1452.02401,0.09653
1449.96440,0.09671
1447.90479,0.09672
1445.84518,0.09649
1443.78557,0.09570
1441.72596,0.09432
1439.66635,0.09270
1437.60675,0.09102
1435.54714,0.08937
1433.48753,0.08782
1431.42792,0.08636
1429.36831,0.08513
1427.30870,0.08419
1425.24909,0.08345
1423.18949,0.08301
1421.12988,0.08298
1419.07027,0.08332
1417.01066,0.08386
1414.95105,0.08437
1412.89144,0.08496
1410.83183,0.08557
1408.77223,0.08591
1406.71262,0.08600
1404.65301,0.08597
1402.59340,0.08570
1400.53379,0.08519
1398.47418,0.08461
1396.41458,0.08413
1394.35497,0.08383
1392.29536,0.08363
1390.23575,0.08345
1388.17614,0.08340
1386.11653,0.08332
1384.05692,0.08281
1381.99732,0.08203
1379.93771,0.08128
1377.87810,0.08063
1375.81849,0.08022
1373.75888,0.08021
1371.69927,0.08030
1369.63966,0.08018
1367.58006,0.07979
1365.52045,0.07905
1363.46084,0.07805
1361.40123,0.07703
1359.34162,0.07626
1357.28201,0.07565
1355.22240,0.07506
1353.16280,0.07449
1351.10319,0.07398
1349.04358,0.07362
1346.98397,0.07348
1344.92436,0.07344
1342.86475,0.07345
1340.80515,0.07349
1338.74554,0.07352
1336.68593,0.07341
1334.62632,0.07316
1332.56671,0.07293
1330.50710,0.07272
1328.44749,0.07240
1326.38789,0.07206
1324.32828,0.07185
1322.26867,0.07171
1320.20906,0.07161
1318.14945,0.07144
1316.08984,0.07114
1314.03023,0.07087
1311.97063,0.07067
1309.91102,0.07044
1307.85141,0.07022
1305.79180,0.07003
1303.73219,0.06968
1301.67258,0.06918
1299.61297,0.06878
1297.55337,0.06855
1295.49376,0.06831
1293.43415,0.06799
1291.37454,0.06774
1289.31493,0.06767
1287.25532,0.06758
1285.19572,0.06736
1283.13611,0.06726
1281.07650,0.06727
1279.01689,0.06709
1276.95728,0.06671
1274.89767,0.06642
1272.83806,0.06632
1270.77846,0.06626
1268.71885,0.06619
1266.65924,0.06609
1264.59963,0.06605
1262.54002,0.06627
1260.48041,0.06669
1258.42080,0.06729
1256.36120,0.06806
1254.30159,0.06883
1252.24198,0.06959
1250.18237,0.07036
1248.12276,0.07106
1246.06315,0.07176
1244.00354,0.07242
1241.94394,0.07296
1239.88433,0.07344
1237.82472,0.07391
1235.76511,0.07427
1233.70550,0.07439
1231.64589,0.07441
1229.58629,0.07449
1227.52668,0.07447
1225.46707,0.07428
1223.40746,0.07400
1221.34785,0.07358
1219.28824,0.07301
1217.22863,0.07239
1215.16903,0.07174
1213.10942,0.07099
1211.04981,0.07003
1208.99020,0.06891
1206.93059,0.06779
1204.87098,0.06672
1202.81137,0.06564
1200.75177,0.06446
1198.69216,0.06329
1196.63255,0.06218
1194.57294,0.06112
1192.51333,0.06019
1190.45372,0.05942
1188.39411,0.05875
1186.33451,0.05817
1184.27490,0.05767
1182.21529,0.05720
1180.15568,0.05692
1178.09607,0.05696
1176.03646,0.05726
1173.97686,0.05773
1171.91725,0.05834
1169.85764,0.05907
1167.79803,0.05977
1165.73842,0.06026
1163.67881,0.06053
1161.61920,0.06058
1159.55960,0.06040
1157.49999,0.06010
1155.44038,0.05963
1153.38077,0.05890
1151.32116,0.05804
1149.26155,0.05717
1147.20194,0.05624
1145.14234,0.05525
1143.08273,0.05439
1141.02312,0.05373
1138.96351,0.05321
1136.90390,0.05270
1134.84429,0.05223
1132.78468,0.05181
1130.72508,0.05137
1128.66547,0.05098
1126.60586,0.05065
1124.54625,0.05032
1122.48664,0.05006
1120.42703,0.04987
1118.36743,0.04951
1116.30782,0.04904
1114.24821,0.04869
1112.18860,0.04849
1110.12899,0.04823
1108.06938,0.04788
1106.00977,0.04768
1103.95017,0.04759
1101.89056,0.04740
1099.83095,0.04727
1097.77134,0.04738
1095.71173,0.04750
1093.65212,0.04751
1091.59251,0.04773
1089.53291,0.04841
1087.47330,0.04941
1085.41369,0.05051
1083.35408,0.05167
1081.29447,0.05297
1079.23486,0.05438
1077.17525,0.05568
1075.11565,0.05688
1073.05604,0.05810
1070.99643,0.05925
1068.93682,0.06020
1066.87721,0.06090
1064.81760,0.06143
1062.75800,0.06182
1060.69839,0.06194
1058.63878,0.06168
1056.57917,0.06113
1054.51956,0.06046
1052.45995,0.05981
1050.40034,0.05924
1048.34074,0.05870
1046.28113,0.05819
1044.22152,0.05768
1042.16191,0.05710
1040.10230,0.05647
1038.04269,0.05577
1035.98308,0.05502
1033.92348,0.05443
1031.86387,0.05392
1029.80426,0.05328
1027.74465,0.05248
1025.68504,0.05149
1023.62543,0.05037
1021.56582,0.04935
1019.50622,0.04842
1017.44661,0.04746
1015.38700,0.04658
1013.32739,0.04582
1011.26778,0.04500
1009.20817,0.04425
1007.14857,0.04372
1005.08896,0.04321
1003.02935,0.04258
1000.96974,0.04189
998.91013,0.04135
996.85052,0.04097
994.79091,0.04062
992.73131,0.04023
990.67170,0.03983
988.61209,0.03945
986.55248,0.03914
984.49287,0.03888
982.43326,0.03866
980.37365,0.03851
978.31405,0.03834
976.25444,0.03806
974.19483,0.03786
972.13522,0.03793
970.07561,0.03811
968.01600,0.03825
965.95639,0.03853
963.89679,0.03894
961.83718,0.03914
959.77757,0.03911
957.71796,0.03899
955.65835,0.03873
953.59874,0.03836
951.53914,0.03798
949.47953,0.03763
947.41992,0.03738
945.36031,0.03721
943.30070,0.03696
941.24109,0.03667
939.18148,0.03646
937.12188,0.03635
935.06227,0.03625
933.00266,0.03615
930.94305,0.03604
928.88344,0.03592
926.82383,0.03569
924.76422,0.03530
922.70462,0.03492
920.64501,0.03470
918.58540,0.03449
916.52579,0.03416
914.46618,0.03381
912.40657,0.03354
910.34696,0.03343
908.28736,0.03346
906.22775,0.03353
904.16814,0.03353
902.10853,0.03344
900.04892,0.03332
897.98931,0.03324
895.92971,0.03303
893.87010,0.03262
891.81049,0.03218
889.75088,0.03183
887.69127,0.03162
885.63166,0.03146
883.57205,0.03117
881.51245,0.03075
879.45284,0.03049
877.39323,0.03038
875.33362,0.03029
873.27401,0.03015
871.21440,0.02996
869.15479,0.02972
867.09519,0.02941
865.03558,0.02913
862.97597,0.02886
860.91636,0.02842
858.85675,0.02803
856.79714,0.02792
854.73753,0.02791
852.67793,0.02786
850.61832,0.02772
848.55871,0.02751
846.49910,0.02733
844.43949,0.02716
842.37988,0.02700
840.32028,0.02695
838.26067,0.02705
836.20106,0.02717
834.14145,0.02720
832.08184,0.02728
830.02223,0.02749
827.96262,0.02773
825.90302,0.02783
823.84341,0.02775
821.78380,0.02761
819.72419,0.02760
817.66458,0.02777
815.60497,0.02792
813.54536,0.02801
811.48576,0.02822
809.42615,0.02840
807.36654,0.02838
805.30693,0.02834
803.24732,0.02833
801.18771,0.02833
799.12810,0.02832
797.06850,0.02828
795.00889,0.02829
792.94928,0.02837
790.88967,0.02846
788.83006,0.02854
786.77045,0.02872
784.71085,0.02908
782.65124,0.02949
780.59163,0.02977
778.53202,0.02998
776.47241,0.03018
774.41280,0.03035
772.35319,0.03056
770.29359,0.03079
768.23398,0.03095
766.17437,0.03104
764.11476,0.03110
762.05515,0.03116
759.99554,0.03135
757.93593,0.03162
755.87633,0.03183
753.81672,0.03202
751.75711,0.03223
749.69750,0.03240
747.63789,0.03262
745.57828,0.03277
743.51867,0.03271
741.45907,0.03254
739.39946,0.03242
737.33985,0.03241
735.28024,0.03246
733.22063,0.03265
731.16102,0.03304
729.10142,0.03341
727.04181,0.03368
724.98220,0.03417
722.92259,0.03503
720.86298,0.03605
718.80337,0.03697
716.74376,0.03775
714.68416,0.03862
712.62455,0.03968
710.56494,0.04075
708.50533,0.04168
706.44572,0.04257
704.38611,0.04357
702.32650,0.04452
700.26690,0.04539
698.20729,0.04623
696.14768,0.04676
694.08807,0.04677
692.02846,0.04648
689.96885,0.04626
687.90924,0.04619
685.84964,0.04613
683.79003,0.04616
681.73042,0.04639
679.67081,0.04659
677.61120,0.04656
675.55159,0.04641
673.49199,0.04630
671.43238,0.04627
669.37277,0.04632
667.31316,0.04643
665.25355,0.04652
663.19394,0.04655
661.13433,0.04646
659.07473,0.04621
657.01512,0.04607
654.95551,0.04623
652.89590,0.04651
650.83629,0.04676
648.77668,0.04703
646.71707,0.04727
644.65747,0.04743
642.59786,0.04756
640.53825,0.04776
638.47864,0.04804
636.41903,0.04828
634.35942,0.04862
632.29981,0.04912
630.24021,0.04934
628.18060,0.04911
626.12099,0.04889
624.06138,0.04896
622.00177,0.04909
619.94216,0.04908
617.88256,0.04893
615.82295,0.04867
613.76334,0.04829
611.70373,0.04787
609.64412,0.04770
607.58451,0.04775
605.52490,0.04756
603.46530,0.04699
601.40569,0.04640
599.34608,0.04616
597.28647,0.04623
595.22686,0.04632
593.16725,0.04622
591.10764,0.04605
589.04804,0.04598
586.98843,0.04591
584.92882,0.04587
582.86921,0.04599
580.80960,0.04607
578.74999,0.04609
576.69039,0.04617
574.63078,0.04624
572.57117,0.04633
570.51156,0.04631
568.45195,0.04627
566.39234,0.04640
564.33273,0.04647
562.27313,0.04639
560.21352,0.04626
558.15391,0.04625
556.09430,0.04635
554.03469,0.04635
551.97508,0.04620
549.91547,0.04595
547.85587,0.04567
545.79626,0.04548
543.73665,0.04527
541.67704,0.04514
539.61743,0.04522
537.55782,0.04532
535.49821,0.04527
533.43861,0.04506
531.37900,0.04474
529.31939,0.04460
527.25978,0.04476
525.20017,0.04489
523.14056,0.04479
521.08096,0.04458
519.02135,0.04437
516.96174,0.04427
514.90213,0.04429
512.84252,0.04410
510.78291,0.04346
508.72330,0.04284
506.66370,0.04273
504.60409,0.04275
502.54448,0.04261
500.48487,0.04256
498.42526,0.04253
496.36565,0.04225
494.30604,0.04168
492.24644,0.04126
490.18683,0.04125
488.12722,0.04110
486.06761,0.04058
484.00800,0.04008
481.94839,0.03991
479.88878,0.03999
477.82918,0.04001
475.76957,0.04007
473.70996,0.04031
471.65035,0.04040
469.59074,0.04014
467.53113,0.03982
465.47153,0.03963
463.41192,0.03970
461.35231,0.03993
459.29270,0.03990
457.23309,0.03941
455.17348,0.03908
453.11387,0.03912
451.05427,0.03914
448.99466,0.03901
446.93505,0.03860
444.87544,0.03792
442.81583,0.03746
440.75622,0.03748
438.69661,0.03757
436.63701,0.03740
434.57740,0.03668
432.51779,0.03588
430.45818,0.03585
428.39857,0.03563
426.33896,0.03447
424.27935,0.03373
422.21975,0.03383
420.16014,0.03349
418.10053,0.03260
416.04092,0.03232
413.98131,0.03248
411.92170,0.03248
409.86210,0.03215
407.80249,0.03188
405.74288,0.03199
403.68327,0.03206
401.62366,0.03161
399.56405,0.03077
