3997.70013,0.10288
3995.64052,0.10295
3993.58092,0.10247
3991.52131,0.10208
3989.46170,0.10225
3987.40209,0.10208
3985.34248,0.10159
3983.28287,0.10178
3981.22327,0.10254
3979.16366,0.10287
3977.10405,0.10227
3975.04444,0.10160
3972.98483,0.10162
3970.92522,0.10166
3968.86561,0.10142
3966.80601,0.10163
3964.74640,0.10238
3962.68679,0.10248
3960.62718,0.10198
3958.56757,0.10179
3956.50796,0.10112
3954.44835,0.10008
3952.38875,0.09994
3950.32914,0.10053
3948.26953,0.10098
3946.20992,0.10067
3944.15031,0.09990
3942.09070,0.09956
3940.03109,0.09980
3937.97149,0.09979
3935.91188,0.09946
3933.85227,0.09977
3931.79266,0.10044
3929.73305,0.10039
3927.67344,0.09993
3925.61384,0.09956
3923.55423,0.09918
3921.49462,0.09868
3919.43501,0.09815
3917.37540,0.09784
3915.31579,0.09796
3913.25618,0.09850
3911.19658,0.09885
3909.13697,0.09856
3907.07736,0.09857
3905.01775,0.09926
3902.95814,0.09954
3900.89853,0.09942
3898.83892,0.09952
3896.77932,0.09915
3894.71971,0.09835
3892.66010,0.09788
3890.60049,0.09734
3888.54088,0.09692
3886.48127,0.09788
3884.42166,0.09932
3882.36206,0.09934
3880.30245,0.09818
3878.24284,0.09736
3876.18323,0.09749
3874.12362,0.09759
3872.06401,0.09740
3870.00441,0.09772
3867.94480,0.09819
3865.88519,0.09802
3863.82558,0.09724
3861.76597,0.09670
3859.70636,0.09667
3857.64675,0.09673
3855.58715,0.09725
3853.52754,0.09830
3851.46793,0.09803
3849.40832,0.09678
3847.34871,0.09605
3845.28910,0.09610
3843.22949,0.09671
3841.16989,0.09717
3839.11028,0.09691
3837.05067,0.09648
3834.99106,0.09636
3832.93145,0.09605
3830.87184,0.09542
3828.81223,0.09524
3826.75263,0.09574
3824.69302,0.09578
3822.63341,0.09533
3820.57380,0.09521
3818.51419,0.09508
3816.45458,0.09473
3814.39498,0.09425
3812.33537,0.09345
3810.27576,0.09297
3808.21615,0.09321
3806.15654,0.09336
3804.09693,0.09320
3802.03732,0.09345
3799.97772,0.09396
3797.91811,0.09372
3795.85850,0.09304
3793.79889,0.09272
3791.73928,0.09279
3789.67967,0.09307
3787.62006,0.09325
3785.56046,0.09354
3783.50085,0.09426
3781.44124,0.09461
3779.38163,0.09399
3777.32202,0.09302
3775.26241,0.09275
3773.20280,0.09292
3771.14320,0.09273
3769.08359,0.09222
3767.02398,0.09161
3764.96437,0.09156
3762.90476,0.09218
3760.84515,0.09211
3758.78555,0.09114
3756.72594,0.09086
3754.66633,0.09096
3752.60672,0.09034
3750.54711,0.08976
3748.48750,0.09013
3746.42789,0.09123
3744.36829,0.09200
3742.30868,0.09110
3740.24907,0.08983
3738.18946,0.08912
3736.12985,0.08894
3734.07024,0.08901
3732.01063,0.08908
3729.95103,0.08923
3727.89142,0.08932
3725.83181,0.08921
3723.77220,0.08914
3721.71259,0.08953
3719.65298,0.08987
3717.59337,0.08945
3715.53377,0.08893
3713.47416,0.08881
3711.41455,0.08882
3709.35494,0.08890
3707.29533,0.08876
3705.23572,0.08868
3703.17612,0.08925
3701.11651,0.09009
3699.05690,0.09000
3696.99729,0.08877
3694.93768,0.08776
3692.87807,0.08737
3690.81846,0.08681
3688.75886,0.08688
3686.69925,0.08790
3684.63964,0.08834
3682.58003,0.08817
3680.52042,0.08798
3678.46081,0.08770
3676.40120,0.08720
3674.34160,0.08612
3672.28199,0.08546
3670.22238,0.08627
3668.16277,0.08676
3666.10316,0.08610
3664.04355,0.08620
3661.98394,0.08731
3659.92434,0.08802
3657.86473,0.08808
3655.80512,0.08816
3653.74551,0.08824
3651.68590,0.08777
3649.62629,0.08652
3647.56669,0.08550
3645.50708,0.08519
3643.44747,0.08538
3641.38786,0.08613
3639.32825,0.08669
3637.26864,0.08654
3635.20903,0.08628
3633.14943,0.08624
3631.08982,0.08603
3629.03021,0.08538
3626.97060,0.08500
3624.91099,0.08510
3622.85138,0.08524
3620.79177,0.08534
3618.73217,0.08519
3616.67256,0.08468
3614.61295,0.08451
3612.55334,0.08504
3610.49373,0.08554
3608.43412,0.08543
3606.37451,0.08499
3604.31491,0.08453
3602.25530,0.08421
3600.19569,0.08432
3598.13608,0.08463
3596.07647,0.08467
3594.01686,0.08442
3591.95726,0.08423
3589.89765,0.08411
3587.83804,0.08376
3585.77843,0.08375
3583.71882,0.08418
3581.65921,0.08442
3579.59960,0.08449
3577.54000,0.08486
3575.48039,0.08531
3573.42078,0.08521
3571.36117,0.08461
3569.30156,0.08386
3567.24195,0.08323
3565.18234,0.08331
3563.12274,0.08378
3561.06313,0.08387
3559.00352,0.08356
3556.94391,0.08317
3554.88430,0.08325
3552.82469,0.08401
3550.76508,0.08480
3548.70548,0.08493
3546.64587,0.08430
3544.58626,0.08371
3542.52665,0.08378
3540.46704,0.08387
3538.40743,0.08349
3536.34783,0.08319
3534.28822,0.08335
3532.22861,0.08354
3530.16900,0.08358
3528.10939,0.08352
3526.04978,0.08341
3523.99017,0.08357
3521.93057,0.08375
3519.87096,0.08356
3517.81135,0.08338
3515.75174,0.08347
3513.69213,0.08353
3511.63252,0.08323
3509.57291,0.08274
3507.51331,0.08223
3505.45370,0.08190
3503.39409,0.08218
3501.33448,0.08247
3499.27487,0.08242
3497.21526,0.08271
3495.15565,0.08320
3493.09605,0.08320
3491.03644,0.08280
3488.97683,0.08280
3486.91722,0.08328
3484.85761,0.08338
3482.79800,0.08294
3480.73840,0.08247
3478.67879,0.08226
3476.61918,0.08199
3474.55957,0.08157
3472.49996,0.08170
3470.44035,0.08206
3468.38074,0.08210
3466.32114,0.08240
3464.26153,0.08312
3462.20192,0.08341
3460.14231,0.08288
3458.08270,0.08225
3456.02309,0.08214
3453.96348,0.08206
3451.90388,0.08162
3449.84427,0.08120
3447.78466,0.08087
3445.72505,0.08069
3443.66544,0.08100
3441.60583,0.08136
3439.54622,0.08162
3437.48662,0.08196
3435.42701,0.08203
3433.36740,0.08186
3431.30779,0.08149
3429.24818,0.08088
3427.18857,0.08063
3425.12897,0.08126
3423.06936,0.08211
3421.00975,0.08217
3418.95014,0.08152
3416.89053,0.08063
3414.83092,0.08003
3412.77131,0.08046
3410.71171,0.08122
3408.65210,0.08117
3406.59249,0.08075
3404.53288,0.08053
3402.47327,0.08064
3400.41366,0.08136
3398.35405,0.08191
3396.29445,0.08155
3394.23484,0.08114
3392.17523,0.08139
3390.11562,0.08180
3388.05601,0.08192
3385.99640,0.08177
3383.93679,0.08172
3381.87719,0.08216
3379.81758,0.08297
3377.75797,0.08355
3375.69836,0.08357
3373.63875,0.08342
3371.57914,0.08357
3369.51954,0.08415
3367.45993,0.08461
3365.40032,0.08441
3363.34071,0.08436
3361.28110,0.08524
3359.22149,0.08654
3357.16188,0.08744
3355.10228,0.08779
3353.04267,0.08820
3350.98306,0.08909
3348.92345,0.09000
3346.86384,0.09060
3344.80423,0.09107
3342.74462,0.09133
3340.68502,0.09155
3338.62541,0.09192
3336.56580,0.09182
3334.50619,0.09124
3332.44658,0.09104
3330.38697,0.09108
3328.32736,0.09101
3326.26776,0.09107
3324.20815,0.09116
3322.14854,0.09117
3320.08893,0.09117
3318.02932,0.09104
3315.96971,0.09103
3313.91011,0.09131
3311.85050,0.09145
3309.79089,0.09157
3307.73128,0.09216
3305.67167,0.09266
3303.61206,0.09249
3301.55245,0.09218
3299.49285,0.09241
3297.43324,0.09307
3295.37363,0.09375
3293.31402,0.09435
3291.25441,0.09457
3289.19480,0.09442
3287.13519,0.09467
3285.07559,0.09518
3283.01598,0.09564
3280.95637,0.09640
3278.89676,0.09733
3276.83715,0.09839
3274.77754,0.09963
3272.71793,0.10068
3270.65833,0.10130
3268.59872,0.10161
3266.53911,0.10181
3264.47950,0.10208
3262.41989,0.10246
3260.36028,0.10302
3258.30068,0.10393
3256.24107,0.10493
3254.18146,0.10553
3252.12185,0.10591
3250.06224,0.10632
3248.00263,0.10673
3245.94302,0.10722
3243.88342,0.10781
3241.82381,0.10828
3239.76420,0.10851
3237.70459,0.10872
3235.64498,0.10925
3233.58537,0.11024
3231.52576,0.11145
3229.46616,0.11241
3227.40655,0.11302
3225.34694,0.11323
3223.28733,0.11344
3221.22772,0.11445
3219.16811,0.11588
3217.10850,0.11685
3215.04890,0.11732
3212.98929,0.11777
3210.92968,0.11850
3208.87007,0.11948
3206.81046,0.12056
3204.75085,0.12148
3202.69125,0.12214
3200.63164,0.12269
3198.57203,0.12324
3196.51242,0.12425
3194.45281,0.12593
3192.39320,0.12794
3190.33359,0.12959
3188.27399,0.13037
3186.21438,0.13069
3184.15477,0.13127
3182.09516,0.13224
3180.03555,0.13320
3177.97594,0.13399
3175.91633,0.13486
3173.85673,0.13572
3171.79712,0.13624
3169.73751,0.13654
3167.67790,0.13702
3165.61829,0.13751
3163.55868,0.13801
3161.49907,0.13905
3159.43947,0.14050
3157.37986,0.14172
3155.32025,0.14270
3153.26064,0.14395
3151.20103,0.14522
3149.14142,0.14600
3147.08182,0.14671
3145.02221,0.14767
3142.96260,0.14891
3140.90299,0.15039
3138.84338,0.15200
3136.78377,0.15385
3134.72416,0.15574
3132.66456,0.15759
3130.60495,0.15976
3128.54534,0.16217
3126.48573,0.16482
3124.42612,0.16780
3122.36651,0.17073
3120.30690,0.17317
3118.24730,0.17507
3116.18769,0.17696
3114.12808,0.17877
3112.06847,0.18017
3110.00886,0.18160
3107.94925,0.18333
3105.88965,0.18505
3103.83004,0.18650
3101.77043,0.18777
3099.71082,0.18926
3097.65121,0.19107
3095.59160,0.19273
3093.53199,0.19398
3091.47239,0.19498
3089.41278,0.19560
3087.35317,0.19525
3085.29356,0.19392
3083.23395,0.19194
3081.17434,0.18943
3079.11473,0.18684
3077.05513,0.18496
3074.99552,0.18400
3072.93591,0.18354
3070.87630,0.18337
3068.81669,0.18356
3066.75708,0.18426
3064.69747,0.18549
3062.63787,0.18710
3060.57826,0.18870
3058.51865,0.19019
3056.45904,0.19257
3054.39943,0.19705
3052.33982,0.20390
3050.28022,0.21210
3048.22061,0.21953
3046.16100,0.22367
3044.10139,0.22319
3042.04178,0.21966
3039.98217,0.21594
3037.92256,0.21360
3035.86296,0.21257
3033.80335,0.21194
3031.74374,0.21160
3029.68413,0.21209
3027.62452,0.21408
3025.56491,0.21921
3023.50530,0.22846
3021.44570,0.23821
3019.38609,0.24203
3017.32648,0.23884
3015.26687,0.23359
3013.20726,0.23003
3011.14765,0.22840
3009.08804,0.22791
3007.02844,0.22811
3004.96883,0.22864
3002.90922,0.22883
3000.84961,0.22802
2998.79000,0.22732
2996.73039,0.23083
2994.67079,0.24152
2992.61118,0.25296
2990.55157,0.25297
2988.49196,0.24190
2986.43235,0.23280
2984.37274,0.23340
2982.31313,0.24048
2980.25353,0.24490
2978.19392,0.24032
2976.13431,0.23073
2974.07470,0.22495
2972.01509,0.22843
2969.95548,0.24326
2967.89587,0.26738
2965.83627,0.29192
2963.77666,0.31034
2961.71705,0.32967
2959.65744,0.36156
2957.59783,0.40528
2955.53822,0.44201
2953.47861,0.45302
2951.41901,0.44438
2949.35940,0.43255
2947.29979,0.41856
2945.24018,0.39889
2943.18057,0.38008
2941.12096,0.36755
2939.06136,0.35903
2937.00175,0.35242
2934.94214,0.34879
2932.88253,0.35009
2930.82292,0.35821
2928.76331,0.37360
2926.70370,0.39343
2924.64410,0.41109
2922.58449,0.41937
2920.52488,0.41676
2918.46527,0.40753
2916.40566,0.39583
2914.34605,0.38353
2912.28644,0.37172
2910.22684,0.36111
2908.16723,0.35223
2906.10762,0.34520
2904.04801,0.33952
2901.98840,0.33487
2899.92879,0.33094
2897.86918,0.32680
2895.80958,0.32138
2893.74997,0.31428
2891.69036,0.30664
2889.63075,0.30029
2887.57114,0.29603
2885.51153,0.29476
2883.45193,0.29814
2881.39232,0.30848
2879.33271,0.32779
2877.27310,0.35221
2875.21349,0.37107
2873.15388,0.38113
2871.09427,0.39014
2869.03467,0.39847
2866.97506,0.39546
2864.91545,0.37737
2862.85584,0.35305
2860.79623,0.33209
2858.73662,0.31815
2856.67701,0.31139
2854.61741,0.31103
2852.55780,0.31399
2850.49819,0.31428
2848.43858,0.30848
2846.37897,0.29928
2844.31936,0.29075
2842.25975,0.28400
2840.20015,0.27888
2838.14054,0.27509
2836.08093,0.27202
2834.02132,0.26915
2831.96171,0.26613
2829.90210,0.26287
2827.84250,0.25933
2825.78289,0.25548
2823.72328,0.25164
2821.66367,0.24795
2819.60406,0.24425
2817.54445,0.24058
2815.48484,0.23686
2813.42524,0.23325
2811.36563,0.23010
2809.30602,0.22723
2807.24641,0.22430
2805.18680,0.22131
2803.12719,0.21832
2801.06758,0.21518
2799.00798,0.21207
2796.94837,0.20949
2794.88876,0.20736
2792.82915,0.20526
2790.76954,0.20305
2788.70993,0.20081
2786.65032,0.19887
2784.59072,0.19748
2782.53111,0.19615
2780.47150,0.19448
2778.41189,0.19268
2776.35228,0.19099
2774.29267,0.18947
2772.23307,0.18805
2770.17346,0.18647
2768.11385,0.18482
2766.05424,0.18361
2763.99463,0.18311
2761.93502,0.18316
2759.87541,0.18350
2757.81581,0.18415
2755.75620,0.18508
2753.69659,0.18592
2751.63698,0.18663
2749.57737,0.18764
2747.51776,0.18925
2745.45815,0.19190
2743.39855,0.19548
2741.33894,0.19937
2739.27933,0.20310
2737.21972,0.20614
2735.16011,0.20828
2733.10050,0.20978
2731.04089,0.21082
2728.98129,0.21133
2726.92168,0.21124
2724.86207,0.21043
2722.80246,0.20874
2720.74285,0.20646
2718.68324,0.20436
2716.62364,0.20243
2714.56403,0.19993
2712.50442,0.19692
2710.44481,0.19420
2708.38520,0.19205
2706.32559,0.19009
2704.26598,0.18815
2702.20638,0.18656
2700.14677,0.18563
2698.08716,0.18519
2696.02755,0.18472
2693.96794,0.18413
2691.90833,0.18363
2689.84872,0.18325
2687.78912,0.18287
2685.72951,0.18209
2683.66990,0.18073
2681.61029,0.17910
2679.55068,0.17753
2677.49107,0.17610
2675.43146,0.17474
2673.37186,0.17359
2671.31225,0.17281
2669.25264,0.17214
2667.19303,0.17149
2665.13342,0.17125
2663.07381,0.17168
2661.01421,0.17261
2658.95460,0.17384
2656.89499,0.17530
2654.83538,0.17706
2652.77577,0.17906
2650.71616,0.18086
2648.65655,0.18201
2646.59695,0.18263
2644.53734,0.18376
2642.47773,0.18614
2640.41812,0.18951
2638.35851,0.19337
2636.29890,0.19702
2634.23929,0.19948
2632.17969,0.20034
2630.12008,0.19968
2628.06047,0.19788
2626.00086,0.19536
2623.94125,0.19225
2621.88164,0.18889
2619.82203,0.18574
2617.76243,0.18282
2615.70282,0.17999
2613.64321,0.17764
2611.58360,0.17614
2609.52399,0.17516
2607.46438,0.17481
2605.40478,0.17560
2603.34517,0.17694
2601.28556,0.17751
2599.22595,0.17700
2597.16634,0.17562
2595.10673,0.17326
2593.04712,0.17038
2590.98752,0.16813
2588.92791,0.16696
2586.86830,0.16600
2584.80869,0.16441
2582.74908,0.16216
2580.68947,0.15982
2578.62986,0.15779
2576.57026,0.15605
2574.51065,0.15453
2572.45104,0.15329
2570.39143,0.15228
2568.33182,0.15127
2566.27221,0.15043
2564.21260,0.14978
2562.15300,0.14924
2560.09339,0.14904
2558.03378,0.14912
2555.97417,0.14939
2553.91456,0.14981
2551.85495,0.15014
2549.79535,0.15036
2547.73574,0.15119
2545.67613,0.15272
2543.61652,0.15402
2541.55691,0.15459
2539.49730,0.15425
2537.43769,0.15281
2535.37809,0.15058
2533.31848,0.14797
2531.25887,0.14515
2529.19926,0.14268
2527.13965,0.14082
2525.08004,0.13905
2523.02043,0.13752
2520.96083,0.13655
2518.90122,0.13560
2516.84161,0.13423
2514.78200,0.13253
2512.72239,0.13079
2510.66278,0.12926
2508.60317,0.12784
2506.54357,0.12676
2504.48396,0.12648
2502.42435,0.12656
2500.36474,0.12633
2498.30513,0.12579
2496.24552,0.12496
2494.18592,0.12371
2492.12631,0.12229
2490.06670,0.12106
2488.00709,0.11972
2485.94748,0.11794
2483.88787,0.11599
2481.82826,0.11438
2479.76866,0.11321
2477.70905,0.11217
2475.64944,0.11104
2473.58983,0.10961
2471.53022,0.10788
2469.47061,0.10642
2467.41100,0.10567
2465.35140,0.10543
2463.29179,0.10512
2461.23218,0.10458
2459.17257,0.10449
2457.11296,0.10499
2455.05335,0.10540
2452.99374,0.10562
2450.93414,0.10585
2448.87453,0.10575
2446.81492,0.10498
2444.75531,0.10370
2442.69570,0.10247
2440.63609,0.10138
2438.57649,0.09995
2436.51688,0.09850
2434.45727,0.09759
2432.39766,0.09704
2430.33805,0.09641
2428.27844,0.09554
2426.21883,0.09485
2424.15923,0.09449
2422.09962,0.09411
2420.04001,0.09382
2417.98040,0.09391
2415.92079,0.09442
2413.86118,0.09497
2411.80157,0.09499
2409.74197,0.09467
2407.68236,0.09441
2405.62275,0.09403
2403.56314,0.09356
2401.50353,0.09328
2399.44392,0.09311
2397.38431,0.09276
2395.32471,0.09195
2393.26510,0.09080
2391.20549,0.09009
2389.14588,0.08961
2387.08627,0.08856
2385.02666,0.08741
2382.96706,0.08679
2380.90745,0.08617
2378.84784,0.08537
2376.78823,0.08479
2374.72862,0.08426
2372.66901,0.08350
2370.60940,0.08270
2368.54980,0.08205
2366.49019,0.08150
2364.43058,0.08145
2362.37097,0.08217
2360.31136,0.08277
2358.25175,0.08246
2356.19214,0.08178
2354.13254,0.08138
2352.07293,0.08122
2350.01332,0.08121
2347.95371,0.08109
2345.89410,0.08083
2343.83449,0.08080
2341.77488,0.08107
2339.71528,0.08113
2337.65567,0.08101
2335.59606,0.08097
2333.53645,0.08056
2331.47684,0.07989
2329.41723,0.07995
2327.35763,0.08080
2325.29802,0.08136
2323.23841,0.08084
2321.17880,0.07948
2319.11919,0.07824
2317.05958,0.07788
2314.99997,0.07813
2312.94037,0.07800
2310.88076,0.07732
2308.82115,0.07664
2306.76154,0.07599
2304.70193,0.07538
2302.64232,0.07492
2300.58271,0.07438
2298.52311,0.07381
2296.46350,0.07336
2294.40389,0.07304
2292.34428,0.07307
2290.28467,0.07309
2288.22506,0.07281
2286.16545,0.07255
2284.10585,0.07207
2282.04624,0.07127
2279.98663,0.07046
2277.92702,0.06978
2275.86741,0.06924
2273.80780,0.06852
2271.74820,0.06748
2269.68859,0.06659
2267.62898,0.06599
2265.56937,0.06526
2263.50976,0.06462
2261.45015,0.06429
2259.39054,0.06428
2257.33094,0.06444
2255.27133,0.06396
2253.21172,0.06324
2251.15211,0.06284
2249.09250,0.06214
2247.03289,0.06150
2244.97328,0.06127
2242.91368,0.06074
2240.85407,0.05991
2238.79446,0.05950
2236.73485,0.05950
2234.67524,0.05887
2232.61563,0.05760
2230.55602,0.05728
2228.49642,0.05810
2226.43681,0.05908
2224.37720,0.05933
2222.31759,0.05811
2220.25798,0.05654
2218.19837,0.05610
2216.13877,0.05670
2214.07916,0.05798
2212.01955,0.05875
2209.95994,0.05812
2207.90033,0.05717
2205.84072,0.05660
2203.78111,0.05602
2201.72151,0.05577
2199.66190,0.05657
2197.60229,0.05774
2195.54268,0.05791
2193.48307,0.05674
2191.42346,0.05528
2189.36385,0.05431
2187.30425,0.05336
2185.24464,0.05261
2183.18503,0.05201
2181.12542,0.05187
2179.06581,0.05248
2177.00620,0.05196
2174.94659,0.05119
2172.88699,0.05225
2170.82738,0.05348
2168.76777,0.05373
2166.70816,0.05304
2164.64855,0.05186
2162.58894,0.05070
2160.52934,0.04818
2158.46973,0.04492
2156.41012,0.04421
2154.35051,0.04555
2152.29090,0.04616
2150.23129,0.04554
2148.17168,0.04496
2146.11208,0.04538
2144.05247,0.04629
2141.99286,0.04699
2139.93325,0.04771
2137.87364,0.04842
2135.81403,0.04899
2133.75442,0.04956
2131.69482,0.05025
2129.63521,0.05101
2127.57560,0.05167
2125.51599,0.05243
2123.45638,0.05304
2121.39677,0.05317
2119.33716,0.05322
2117.27756,0.05341
2115.21795,0.05344
2113.15834,0.05334
2111.09873,0.05357
2109.03912,0.05348
2106.97951,0.05252
2104.91991,0.05175
2102.86030,0.05180
2100.80069,0.05209
2098.74108,0.05224
2096.68147,0.05229
2094.62186,0.05207
2092.56225,0.05188
2090.50265,0.05227
2088.44304,0.05323
2086.38343,0.05393
2084.32382,0.05392
2082.26421,0.05416
2080.20460,0.05464
2078.14499,0.05411
2076.08539,0.05321
2074.02578,0.05319
2071.96617,0.05358
2069.90656,0.05331
2067.84695,0.05216
2065.78734,0.05109
2063.72773,0.05067
2061.66813,0.05057
2059.60852,0.05046
2057.54891,0.05058
2055.48930,0.05059
2053.42969,0.05005
2051.37008,0.04959
2049.31048,0.04906
2047.25087,0.04771
2045.19126,0.04618
2043.13165,0.04518
2041.07204,0.04506
2039.01243,0.04572
2036.95282,0.04498
2034.89322,0.04274
2032.83361,0.04207
2030.77400,0.04308
2028.71439,0.04362
2026.65478,0.04339
2024.59517,0.04263
2022.53556,0.04162
2020.47596,0.04102
2018.41635,0.04065
2016.35674,0.04066
2014.29713,0.04129
2012.23752,0.04157
2010.17791,0.04097
2008.11830,0.04022
2006.05870,0.04069
2003.99909,0.04321
2001.93948,0.04566
1999.87987,0.04592
1997.82026,0.04491
1995.76065,0.04379
1993.70105,0.04328
1991.64144,0.04400
1989.58183,0.04472
1987.52222,0.04371
1985.46261,0.04209
1983.40300,0.04246
1981.34339,0.04418
1979.28379,0.04419
1977.22418,0.04248
1975.16457,0.04064
1973.10496,0.03950
1971.04535,0.03965
1968.98574,0.04034
1966.92613,0.04118
1964.86653,0.04249
1962.80692,0.04336
1960.74731,0.04318
1958.68770,0.04314
1956.62809,0.04441
1954.56848,0.04589
1952.50887,0.04585
1950.44927,0.04501
1948.38966,0.04502
1946.33005,0.04544
1944.27044,0.04576
1942.21083,0.04668
1940.15122,0.04790
1938.09162,0.04881
1936.03201,0.04966
1933.97240,0.05020
1931.91279,0.04982
1929.85318,0.04891
1927.79357,0.04814
1925.73396,0.04784
1923.67436,0.04799
1921.61475,0.04854
1919.55514,0.04975
1917.49553,0.05121
1915.43592,0.05203
1913.37631,0.05253
1911.31670,0.05326
1909.25710,0.05334
1907.19749,0.05238
1905.13788,0.05125
1903.07827,0.05040
1901.01866,0.04997
1898.95905,0.04969
1896.89944,0.04959
1894.83984,0.05002
1892.78023,0.05047
1890.72062,0.05052
1888.66101,0.05071
1886.60140,0.05102
1884.54179,0.05074
1882.48219,0.05013
1880.42258,0.04991
1878.36297,0.04975
1876.30336,0.04933
1874.24375,0.04900
1872.18414,0.04868
1870.12453,0.04820
1868.06493,0.04783
1866.00532,0.04773
1863.94571,0.04762
1861.88610,0.04756
1859.82649,0.04747
1857.76688,0.04730
1855.70727,0.04752
1853.64767,0.04797
1851.58806,0.04805
1849.52845,0.04767
1847.46884,0.04735
1845.40923,0.04733
1843.34962,0.04764
1841.29002,0.04778
1839.23041,0.04762
1837.17080,0.04772
1835.11119,0.04822
1833.05158,0.04864
1830.99197,0.04887
1828.93236,0.04908
1826.87276,0.04921
1824.81315,0.04944
1822.75354,0.04988
1820.69393,0.05045
1818.63432,0.05084
1816.57471,0.05111
1814.51510,0.05156
1812.45550,0.05233
1810.39589,0.05334
1808.33628,0.05439
1806.27667,0.05541
1804.21706,0.05592
1802.15745,0.05547
1800.09784,0.05421
1798.03824,0.05291
1795.97863,0.05191
1793.91902,0.05102
1791.85941,0.05020
1789.79980,0.04986
1787.74019,0.04974
1785.68059,0.04963
1783.62098,0.04953
1781.56137,0.04941
1779.50176,0.04934
1777.44215,0.04931
1775.38254,0.04932
1773.32293,0.04940
1771.26333,0.04959
1769.20372,0.04952
1767.14411,0.04937
1765.08450,0.04927
1763.02489,0.04934
1760.96528,0.04953
1758.90567,0.04972
1756.84607,0.04994
1754.78646,0.05036
1752.72685,0.05113
1750.66724,0.05220
1748.60763,0.05327
1746.54802,0.05409
1744.48841,0.05535
1742.42881,0.05769
1740.36920,0.06241
1738.30959,0.06921
1736.24998,0.07712
1734.19037,0.08863
1732.13076,0.10235
1730.07116,0.11716
1728.01155,0.14076
1725.95194,0.17833
1723.89233,0.22848
1721.83272,0.27892
1719.77311,0.31936
1717.71350,0.35338
1715.65390,0.37923
1713.59429,0.39581
1711.53468,0.40850
1709.47507,0.41776
1707.41546,0.42335
1705.35585,0.42547
1703.29624,0.42432
1701.23664,0.42139
1699.17703,0.41799
1697.11742,0.41100
1695.05781,0.39683
1692.99820,0.37834
1690.93859,0.35963
1688.87898,0.34304
1686.81938,0.33012
1684.75977,0.31595
1682.70016,0.29783
1680.64055,0.28058
1678.58094,0.26470
1676.52133,0.24980
1674.46173,0.23574
1672.40212,0.22409
1670.34251,0.21385
1668.28290,0.20389
1666.22329,0.19565
1664.16368,0.18784
1662.10407,0.17988
1660.04447,0.17324
1657.98486,0.16806
1655.92525,0.16329
1653.86564,0.15775
1651.80603,0.15185
1649.74642,0.14767
1647.68681,0.14379
1645.62721,0.13964
1643.56760,0.13636
1641.50799,0.13381
1639.44838,0.13151
1637.38877,0.12882
1635.32916,0.12540
1633.26955,0.12216
1631.20995,0.11952
1629.15034,0.11676
1627.09073,0.11353
1625.03112,0.11026
1622.97151,0.10741
1620.91190,0.10543
1618.85230,0.10419
1616.79269,0.10296
1614.73308,0.10122
1612.67347,0.09939
1610.61386,0.09763
1608.55425,0.09583
1606.49464,0.09389
1604.43504,0.09219
1602.37543,0.09103
1600.31582,0.09000
1598.25621,0.08842
1596.19660,0.08626
1594.13699,0.08402
1592.07738,0.08195
1590.01778,0.08010
1587.95817,0.07840
1585.89856,0.07690
1583.83895,0.07554
1581.77934,0.07436
1579.71973,0.07350
1577.66012,0.07328
1575.60052,0.07360
1573.54091,0.07328
1571.48130,0.07237
1569.42169,0.07187
1567.36208,0.07195
1565.30247,0.07221
1563.24287,0.07249
1561.18326,0.07236
1559.12365,0.07157
1557.06404,0.07048
1555.00443,0.06936
1552.94482,0.06810
1550.88521,0.06686
1548.82561,0.06575
1546.76600,0.06489
1544.70639,0.06426
1542.64678,0.06370
1540.58717,0.06319
1538.52756,0.06285
1536.46795,0.06268
1534.40835,0.06263
1532.34874,0.06264
1530.28913,0.06240
1528.22952,0.06201
1526.16991,0.06183
1524.11030,0.06225
1522.05069,0.06400
1519.99109,0.06738
1517.93148,0.07171
1515.87187,0.07804
1513.81226,0.08930
1511.75265,0.11035
1509.69304,0.14143
1507.63344,0.16935
1505.57383,0.16505
1503.51422,0.14002
1501.45461,0.11811
1499.39500,0.10055
1497.33539,0.08766
1495.27578,0.07994
1493.21618,0.07577
1491.15657,0.07279
1489.09696,0.07006
1487.03735,0.06767
1484.97774,0.06578
1482.91813,0.06443
1480.85852,0.06374
1478.79892,0.06377
1476.73931,0.06451
1474.67970,0.06608
1472.62009,0.06931
1470.56048,0.07513
1468.50087,0.08551
1466.44126,0.10879
1464.38166,0.14997
1462.32205,0.18128
1460.26244,0.17850
1458.20283,0.15198
1456.14322,0.12972
1454.08361,0.13098
1452.02401,0.14224
1449.96440,0.14481
1447.90479,0.13208
1445.84518,0.12025
1443.78557,0.11934
1441.72596,0.11965
1439.66635,0.11278
1437.60675,0.10225
1435.54714,0.09662
1433.48753,0.09919
1431.42792,0.10926
1429.36831,0.12878
1427.30870,0.15652
1425.24909,0.18942
1423.18949,0.22268
1421.12988,0.24976
1419.07027,0.26771
1417.01066,0.26545
1414.95105,0.24242
1412.89144,0.21046
1410.83183,0.17812
1408.77223,0.15047
1406.71262,0.12869
1404.65301,0.11158
1402.59340,0.09900
1400.53379,0.09006
1398.47418,0.08335
1396.41458,0.07841
1394.35497,0.07464
1392.29536,0.07207
1390.23575,0.07096
1388.17614,0.07223
1386.11653,0.07957
1384.05692,0.09850
1381.99732,0.12907
1379.93771,0.15655
1377.87810,0.15838
1375.81849,0.13261
1373.75888,0.10223
1371.69927,0.08619
1369.63966,0.08559
1367.58006,0.09801
1365.52045,0.11185
1363.46084,0.10938
1361.40123,0.09290
1359.34162,0.07926
1357.28201,0.07254
1355.22240,0.06920
1353.16280,0.06735
1351.10319,0.06646
1349.04358,0.06631
1346.98397,0.06696
1344.92436,0.06913
1342.86475,0.07357
1340.80515,0.08101
1338.74554,0.09154
1336.68593,0.10390
1334.62632,0.11626
1332.56671,0.12836
1330.50710,0.13843
1328.44749,0.14083
1326.38789,0.13944
1324.32828,0.14921
1322.26867,0.16885
1320.20906,0.17578
1318.14945,0.15906
1316.08984,0.13251
1314.03023,0.11043
1311.97063,0.09655
1309.91102,0.09017
1307.85141,0.08944
1305.79180,0.09057
1303.73219,0.08878
1301.67258,0.08346
1299.61297,0.07787
1297.55337,0.07403
1295.49376,0.07153
1293.43415,0.06946
1291.37454,0.06764
1289.31493,0.06660
1287.25532,0.06718
1285.19572,0.06948
1283.13611,0.07179
1281.07650,0.07302
1279.01689,0.07598
1276.95728,0.08451
1274.89767,0.09936
1272.83806,0.11953
1270.77846,0.14219
1268.71885,0.15677
1266.65924,0.15150
1264.59963,0.13024
1262.54002,0.10700
1260.48041,0.08985
1258.42080,0.07933
1256.36120,0.07304
1254.30159,0.06843
1252.24198,0.06453
1250.18237,0.06227
1248.12276,0.06321
1246.06315,0.06761
1244.00354,0.07399
1241.94394,0.08222
1239.88433,0.09662
1237.82472,0.12375
1235.76511,0.16609
1233.70550,0.21496
1231.64589,0.25104
1229.58629,0.26038
1227.52668,0.24738
1225.46707,0.22444
1223.40746,0.19891
1221.34785,0.17478
1219.28824,0.15592
1217.22863,0.14199
1215.16903,0.12840
1213.10942,0.11399
1211.04981,0.10248
1208.99020,0.09607
1206.93059,0.09154
1204.87098,0.08480
1202.81137,0.07669
1200.75177,0.06992
1198.69216,0.06517
1196.63255,0.06218
1194.57294,0.06104
1192.51333,0.06301
1190.45372,0.07221
1188.39411,0.09694
1186.33451,0.14045
1184.27490,0.17993
1182.21529,0.18194
1180.15568,0.15305
1178.09607,0.12286
1176.03646,0.10357
1173.97686,0.09504
1171.91725,0.09619
1169.85764,0.10340
1167.79803,0.10737
1165.73842,0.10138
1163.67881,0.08929
1161.61920,0.07803
1159.55960,0.06990
1157.49999,0.06436
1155.44038,0.06049
1153.38077,0.05763
1151.32116,0.05526
1149.26155,0.05297
1147.20194,0.05084
1145.14234,0.04913
1143.08273,0.04781
1141.02312,0.04673
1138.96351,0.04587
1136.90390,0.04522
1134.84429,0.04486
1132.78468,0.04521
1130.72508,0.04736
1128.66547,0.05419
1126.60586,0.07037
1124.54625,0.09250
1122.48664,0.10271
1120.42703,0.09337
1118.36743,0.07913
1116.30782,0.06975
1114.24821,0.06270
1112.18860,0.05620
1110.12899,0.05140
1108.06938,0.04857
1106.00977,0.04716
1103.95017,0.04686
1101.89056,0.04771
1099.83095,0.05004
1097.77134,0.05512
1095.71173,0.06503
1093.65212,0.07771
1091.59251,0.08400
1089.53291,0.07864
1087.47330,0.06815
1085.41369,0.06036
1083.35408,0.05777
1081.29447,0.06152
1079.23486,0.07444
1077.17525,0.09810
1075.11565,0.12498
1073.05604,0.14046
1070.99643,0.14186
1068.93682,0.13934
1066.87721,0.13393
1064.81760,0.11978
1062.75800,0.10128
1060.69839,0.08659
1058.63878,0.07687
1056.57917,0.06971
1054.51956,0.06387
1052.45995,0.05920
1050.40034,0.05568
1048.34074,0.05321
1046.28113,0.05147
1044.22152,0.05002
1042.16191,0.04866
1040.10230,0.04743
1038.04269,0.04640
1035.98308,0.04554
1033.92348,0.04483
1031.86387,0.04443
1029.80426,0.04449
1027.74465,0.04488
1025.68504,0.04612
1023.62543,0.04993
1021.56582,0.05561
1019.50622,0.05888
1017.44661,0.05927
1015.38700,0.06183
1013.32739,0.07037
1011.26778,0.08458
1009.20817,0.09785
1007.14857,0.09968
1005.08896,0.08815
1003.02935,0.07246
1000.96974,0.06061
998.91013,0.05380
996.85052,0.05025
994.79091,0.04845
992.73131,0.04771
990.67170,0.04750
988.61209,0.04758
986.55248,0.04806
984.49287,0.04884
982.43326,0.04967
980.37365,0.05076
978.31405,0.05266
976.25444,0.05624
974.19483,0.06335
972.13522,0.07504
970.07561,0.08382
968.01600,0.07879
965.95639,0.06514
963.89679,0.05636
961.83718,0.05547
959.77757,0.05890
957.71796,0.06457
955.65835,0.07280
953.59874,0.08519
951.53914,0.10175
949.47953,0.11752
947.41992,0.12745
945.36031,0.13181
943.30070,0.13336
941.24109,0.13712
939.18148,0.14577
937.12188,0.15462
935.06227,0.15833
933.00266,0.15622
930.94305,0.15000
928.88344,0.14165
926.82383,0.13287
924.76422,0.12500
922.70462,0.11951
920.64501,0.11646
918.58540,0.11273
916.52579,0.10575
914.46618,0.09722
912.40657,0.08962
910.34696,0.08356
908.28736,0.07866
906.22775,0.07450
904.16814,0.07090
902.10853,0.06780
900.04892,0.06518
897.98931,0.06289
895.92971,0.06076
893.87010,0.05895
891.81049,0.05763
889.75088,0.05681
887.69127,0.05681
885.63166,0.05877
883.57205,0.06409
881.51245,0.07059
879.45284,0.07162
877.39323,0.06634
875.33362,0.06234
873.27401,0.06593
871.21440,0.08068
869.15479,0.10638
867.09519,0.13127
865.03558,0.13724
862.97597,0.12116
860.91636,0.09741
858.85675,0.07857
856.79714,0.06781
854.73753,0.06498
852.67793,0.07056
850.61832,0.07921
848.55871,0.07863
846.49910,0.06727
844.43949,0.05571
842.37988,0.04918
840.32028,0.04687
838.26067,0.04804
836.20106,0.05103
834.14145,0.05275
832.08184,0.05120
830.02223,0.04749
827.96262,0.04420
825.90302,0.04294
823.84341,0.04471
821.78380,0.04883
819.72419,0.05064
817.66458,0.04749
815.60497,0.04366
813.54536,0.04285
811.48576,0.04361
809.42615,0.04313
807.36654,0.04107
805.30693,0.03896
803.24732,0.03750
801.18771,0.03660
799.12810,0.03613
797.06850,0.03589
795.00889,0.03595
792.94928,0.03654
790.88967,0.03776
788.83006,0.04060
786.77045,0.04825
784.71085,0.06907
782.65124,0.11434
780.59163,0.17292
778.53202,0.19259
776.47241,0.15517
774.41280,0.10788
772.35319,0.07686
770.29359,0.05965
768.23398,0.05021
766.17437,0.04473
764.11476,0.04109
762.05515,0.03822
759.99554,0.03592
757.93593,0.03434
755.87633,0.03359
753.81672,0.03412
751.75711,0.03772
749.69750,0.04529
747.63789,0.05213
745.57828,0.05157
743.51867,0.04512
741.45907,0.03899
739.39946,0.03532
737.33985,0.03314
735.28024,0.03156
733.22063,0.03031
731.16102,0.02935
729.10142,0.02871
727.04181,0.02828
724.98220,0.02782
722.92259,0.02732
720.86298,0.02692
718.80337,0.02660
716.74376,0.02632
714.68416,0.02612
712.62455,0.02600
710.56494,0.02577
708.50533,0.02535
706.44572,0.02499
704.38611,0.02496
702.32650,0.02518
700.26690,0.02574
698.20729,0.02754
696.14768,0.03191
694.08807,0.03917
692.02846,0.04573
689.96885,0.04702
687.90924,0.04388
685.84964,0.04047
683.79003,0.03877
681.73042,0.03887
679.67081,0.04095
677.61120,0.04620
675.55159,0.05718
673.49199,0.07629
671.43238,0.10041
669.37277,0.12228
667.31316,0.12772
665.25355,0.11273
663.19394,0.09199
661.13433,0.07251
659.07473,0.05783
657.01512,0.04749
654.95551,0.04019
652.89590,0.03504
650.83629,0.03140
648.77668,0.02872
646.71707,0.02671
644.65747,0.02554
642.59786,0.02688
640.53825,0.03644
638.47864,0.05486
636.41903,0.06391
634.35942,0.05344
632.29981,0.03986
630.24021,0.03268
628.18060,0.02919
626.12099,0.02719
624.06138,0.02586
622.00177,0.02491
619.94216,0.02419
617.88256,0.02349
615.82295,0.02301
613.76334,0.02294
611.70373,0.02313
609.64412,0.02345
607.58451,0.02390
605.52490,0.02472
603.46530,0.02627
601.40569,0.02875
599.34608,0.03232
597.28647,0.03702
595.22686,0.04324
593.16725,0.05238
591.10764,0.06402
589.04804,0.07204
586.98843,0.06966
584.92882,0.05867
582.86921,0.04651
580.80960,0.03757
578.74999,0.03203
576.69039,0.02871
574.63078,0.02660
572.57117,0.02523
570.51156,0.02438
568.45195,0.02394
566.39234,0.02374
564.33273,0.02344
562.27313,0.02298
560.21352,0.02256
558.15391,0.02209
556.09430,0.02148
554.03469,0.02083
551.97508,0.02031
549.91547,0.02011
547.85587,0.02020
545.79626,0.02052
543.73665,0.02100
541.67704,0.02155
539.61743,0.02230
537.55782,0.02338
535.49821,0.02481
533.43861,0.02699
531.37900,0.03103
529.31939,0.03839
527.25978,0.05127
525.20017,0.07015
523.14056,0.08836
521.08096,0.09465
519.02135,0.08472
516.96174,0.06653
514.90213,0.05051
512.84252,0.03988
510.78291,0.03320
508.72330,0.02874
506.66370,0.02562
504.60409,0.02369
502.54448,0.02250
500.48487,0.02149
498.42526,0.02060
496.36565,0.01998
494.30604,0.01992
492.24644,0.02040
490.18683,0.02123
488.12722,0.02245
486.06761,0.02431
484.00800,0.02700
481.94839,0.02967
479.88878,0.03082
477.82918,0.02992
475.76957,0.02756
473.70996,0.02480
471.65035,0.02240
469.59074,0.02063
467.53113,0.01923
465.47153,0.01799
463.41192,0.01731
461.35231,0.01734
459.29270,0.01744
457.23309,0.01730
455.17348,0.01724
453.11387,0.01719
451.05427,0.01701
448.99466,0.01711
446.93505,0.01775
444.87544,0.01853
442.81583,0.01911
440.75622,0.01957
438.69661,0.02019
436.63701,0.02155
434.57740,0.02394
432.51779,0.02747
430.45818,0.03320
428.39857,0.04113
426.33896,0.04892
424.27935,0.05559
422.21975,0.06132
420.16014,0.06316
418.10053,0.05662
416.04092,0.04649
413.98131,0.03863
411.92170,0.03317
409.86210,0.03000
407.80249,0.02873
405.74288,0.02804
403.68327,0.02745
401.62366,0.02835
399.56405,0.03341
397.50444,0.04543
395.44484,0.05856
393.38523,0.06232
391.32562,0.05553
389.26601,0.04467
387.20640,0.03557
385.14679,0.02910
383.08718,0.02435
381.02758,0.02115
378.96797,0.01934
376.90836,0.01845
374.84875,0.01787
372.78914,0.01734
370.72953,0.01749
368.66992,0.01963
366.61032,0.02314
364.55071,0.02561
362.49110,0.02594
360.43149,0.02428
358.37188,0.02176
356.31227,0.02072
354.25267,0.02012
352.19306,0.01794
350.13345,0.01733
348.07384,0.01906
346.01423,0.02075
343.95462,0.02359
341.89501,0.03034
339.83541,0.04000
337.77580,0.04968
335.71619,0.05740
333.65658,0.05779
331.59697,0.05099
329.53736,0.04246
327.47775,0.03533
325.41815,0.03366
323.35854,0.03453
321.29893,0.03207
319.23932,0.02624
317.17971,0.01982
315.12010,0.01803
313.06049,0.02150
311.00089,0.02406
308.94128,0.02636
306.88167,0.03104
304.82206,0.03844
302.76245,0.04433
300.70284,0.03604
298.64324,0.02165
296.58363,-0.00064
294.52402,-0.02426
292.46441,-0.02968
290.40480,-0.01214
288.34519,0.03130
286.28558,0.05964
284.22598,0.01837
282.16637,0.05581
280.10676,0.05754
278.04715,0.15682
275.98754,0.13069
273.92793,0.07916
271.86832,0.04090
269.80872,0.04024
267.74911,0.07359
265.68950,0.08241
263.62989,0.06532
261.57028,-0.03482
259.51067,-0.09682
257.45106,-0.17560
255.39146,-0.12997
253.33185,-0.02640
251.27224,-0.02379
249.21263,-0.04419
247.15302,-0.06315
245.09341,-0.01777
243.03381,-0.07350
240.97420,0.02342
238.91459,0.03340
236.85498,0.06819
234.79537,-0.00648
232.73576,-0.03460
230.67615,-0.06462
228.61655,-0.03245
226.55694,-0.04848
224.49733,-0.08186
222.43772,0.00163
220.37811,-0.00043
218.31850,-0.06858
216.25889,-0.06910
214.19929,0.00826
212.13968,0.03808
210.08007,0.00456
208.02046,-0.01599
205.96085,-0.12796
203.90124,-0.01840
201.84163,0.06322
199.78203,0.01444
197.72242,0.03641
195.66281,0.04013
193.60320,0.02634
191.54359,0.02100
189.48398,0.00927
187.42438,-0.01963
185.36477,-0.07046
183.30516,0.00374
181.24555,0.00549
179.18594,-0.03264
177.12633,-0.03798
175.06672,0.00416
173.00712,0.03283
170.94751,0.03821
168.88790,0.06623
166.82829,0.00617
164.76868,-0.00529
162.70907,-0.01499
160.64946,-0.02284
158.58986,-0.05480
156.53025,-0.06875
154.47064,-0.04980
152.41103,-0.06649
150.35142,-0.02051
148.29181,0.02927
146.23220,0.01769
144.17260,0.03576
142.11299,0.02386
140.05338,0.01408
137.99377,0.03980
135.93416,0.05816
133.87455,0.02739
131.81495,0.01199
129.75534,-0.01077
127.69573,-0.05501
125.63612,-0.03519
123.57651,0.00172
121.51690,0.00532
119.45729,-0.00388
117.39769,-0.00780
115.33808,-0.00086
113.27847,0.01618
111.21886,0.00305
109.15925,0.01302
107.09964,0.02813
105.04003,0.01588
102.98043,0.03995
100.92082,0.01752
98.86121,-0.04204
96.80160,-0.04712
94.74199,-0.04918
92.68238,0.00480
90.62277,0.02618
88.56317,-0.00384
86.50356,-0.00154
84.44395,0.00324
82.38434,-0.00273
80.32473,0.00364
78.26512,0.01934
76.20552,0.02984
74.14591,0.04512
72.08630,0.00412
70.02669,-0.00743
67.96708,-0.00199
65.90747,-0.00633
63.84786,0.00055
61.78826,-0.00048
59.72865,0.01277
57.66904,0.00592
55.60943,0.01406
53.54982,0.01965
51.49021,0.00250
49.43060,-0.01579
47.37100,-0.00508
45.31139,0.01386
43.25178,0.01725
41.19217,0.00202
39.13256,0.00994
37.07295,0.00354
35.01334,0.01101
32.95374,0.00332
30.89413,0.00141
28.83452,-0.00153
26.77491,-0.00553
24.71530,-0.00068
22.65569,-0.00017
20.59609,-0.00488
18.53648,-0.00481
16.47687,-0.00473
14.41726,-0.00028
12.35765,0.00136
10.29804,-0.00013
8.23843,-0.00252
6.17883,0.00024
4.11922,0.00006
2.05961,0.00005
0.00000,-0.00000
