3997.70013,0.00035
3995.64052,0.00056
3993.58092,0.00046
3991.52131,0.00034
3989.46170,0.00054
3987.40209,0.00046
3985.34248,-0.00026
3983.28287,-0.00058
3981.22327,-0.00001
3979.16366,0.00028
3977.10405,-0.00009
3975.04444,-0.00007
3972.98483,0.00018
3970.92522,0.00003
3968.86561,-0.00008
3966.80601,0.00000
3964.74640,-0.00020
3962.68679,-0.00056
3960.62718,-0.00037
3958.56757,0.00026
3956.50796,0.00094
3954.44835,0.00149
3952.38875,0.00174
3950.32914,0.00173
3948.26953,0.00169
3946.20992,0.00152
3944.15031,0.00099
3942.09070,0.00077
3940.03109,0.00104
3937.97149,0.00090
3935.91188,0.00051
3933.85227,0.00058
3931.79266,0.00061
3929.73305,-0.00014
3927.67344,-0.00091
3925.61384,-0.00075
3923.55423,-0.00019
3921.49462,0.00002
3919.43501,0.00037
3917.37540,0.00099
3915.31579,0.00120
3913.25618,0.00120
3911.19658,0.00130
3909.13697,0.00122
3907.07736,0.00096
3905.01775,0.00039
3902.95814,-0.00025
3900.89853,-0.00013
3898.83892,0.00039
3896.77932,0.00055
3894.71971,0.00060
3892.66010,0.00053
3890.60049,0.00032
3888.54088,0.00040
3886.48127,0.00055
3884.42166,0.00044
3882.36206,0.00036
3880.30245,0.00053
3878.24284,0.00063
3876.18323,0.00065
3874.12362,0.00075
3872.06401,0.00063
3870.00441,0.00025
3867.94480,0.00015
3865.88519,0.00071
3863.82558,0.00122
3861.76597,0.00085
3859.70636,0.00055
3857.64675,0.00109
3855.58715,0.00170
3853.52754,0.00159
3851.46793,0.00103
3849.40832,0.00052
3847.34871,0.00020
3845.28910,0.00011
3843.22949,0.00013
3841.16989,0.00042
3839.11028,0.00077
3837.05067,0.00044
3834.99106,-0.00020
3832.93145,0.00004
3830.87184,0.00083
3828.81223,0.00093
3826.75263,0.00023
3824.69302,-0.00035
3822.63341,-0.00036
3820.57380,-0.00023
3818.51419,0.00005
3816.45458,0.00060
3814.39498,0.00066
3812.33537,0.00024
3810.27576,0.00011
3808.21615,0.00035
3806.15654,0.00026
3804.09693,-0.00005
3802.03732,0.00027
3799.97772,0.00085
3797.91811,0.00084
3795.85850,0.00037
3793.79889,-0.00033
3791.73928,-0.00059
3789.67967,0.00007
3787.62006,0.00059
3785.56046,0.00044
3783.50085,0.00045
3781.44124,0.00062
3779.38163,0.00025
3777.32202,-0.00037
3775.26241,-0.00019
3773.20280,0.00039
3771.14320,0.00036
3769.08359,0.00030
3767.02398,0.00078
3764.96437,0.00071
3762.90476,-0.00014
3760.84515,-0.00054
3758.78555,-0.00023
3756.72594,-0.00019
3754.66633,-0.00048
3752.60672,-0.00031
3750.54711,0.00026
3748.48750,0.00063
3746.42789,0.00089
3744.36829,0.00102
3742.30868,0.00133
3740.24907,0.00188
3738.18946,0.00178
3736.12985,0.00075
3734.07024,0.00010
3732.01063,0.00005
3729.95103,0.00012
3727.89142,0.00036
3725.83181,0.00042
3723.77220,0.00035
3721.71259,0.00059
3719.65298,0.00119
3717.59337,0.00132
3715.53377,0.00054
3713.47416,-0.00003
3711.41455,0.00017
3709.35494,0.00045
3707.29533,0.00079
3705.23572,0.00114
3703.17612,0.00094
3701.11651,0.00036
3699.05690,0.00029
3696.99729,0.00070
3694.93768,0.00132
3692.87807,0.00216
3690.81846,0.00252
3688.75886,0.00179
3686.69925,0.00080
3684.63964,0.00038
3682.58003,0.00039
3680.52042,0.00029
3678.46081,-0.00012
3676.40120,-0.00015
3674.34160,0.00056
3672.28199,0.00110
3670.22238,0.00106
3668.16277,0.00087
3666.10316,0.00084
3664.04355,0.00066
3661.98394,0.00037
3659.92434,0.00029
3657.86473,0.00049
3655.80512,0.00094
3653.74551,0.00156
3651.68590,0.00214
3649.62629,0.00220
3647.56669,0.00145
3645.50708,0.00088
3643.44747,0.00075
3641.38786,0.00039
3639.32825,0.00002
3637.26864,0.00040
3635.20903,0.00123
3633.14943,0.00159
3631.08982,0.00134
3629.03021,0.00096
3626.97060,0.00080
3624.91099,0.00101
3622.85138,0.00140
3620.79177,0.00166
3618.73217,0.00147
3616.67256,0.00063
3614.61295,-0.00050
3612.55334,-0.00095
3610.49373,-0.00048
3608.43412,0.00019
3606.37451,0.00065
3604.31491,0.00087
3602.25530,0.00111
3600.19569,0.00125
3598.13608,0.00139
3596.07647,0.00153
3594.01686,0.00107
3591.95726,0.00058
3589.89765,0.00059
3587.83804,0.00053
3585.77843,0.00026
3583.71882,0.00043
3581.65921,0.00097
3579.59960,0.00121
3577.54000,0.00105
3575.48039,0.00062
3573.42078,-0.00000
3571.36117,-0.00039
3569.30156,-0.00036
3567.24195,-0.00018
3565.18234,-0.00017
3563.12274,-0.00022
3561.06313,-0.00010
3559.00352,0.00028
3556.94391,0.00072
3554.88430,0.00071
3552.82469,0.00038
3550.76508,0.00037
3548.70548,0.00057
3546.64587,0.00074
3544.58626,0.00071
3542.52665,0.00027
3540.46704,0.00003
3538.40743,0.00022
3536.34783,0.00039
3534.28822,0.00033
3532.22861,0.00032
3530.16900,0.00070
3528.10939,0.00107
3526.04978,0.00116
3523.99017,0.00116
3521.93057,0.00102
3519.87096,0.00068
3517.81135,0.00068
3515.75174,0.00123
3513.69213,0.00169
3511.63252,0.00150
3509.57291,0.00056
3507.51331,-0.00039
3505.45370,-0.00042
3503.39409,0.00060
3501.33448,0.00160
3499.27487,0.00171
3497.21526,0.00137
3495.15565,0.00123
3493.09605,0.00121
3491.03644,0.00114
3488.97683,0.00113
3486.91722,0.00116
3484.85761,0.00114
3482.79800,0.00114
3480.73840,0.00112
3478.67879,0.00113
3476.61918,0.00134
3474.55957,0.00163
3472.49996,0.00161
3470.44035,0.00109
3468.38074,0.00058
3466.32114,0.00070
3464.26153,0.00130
3462.20192,0.00166
3460.14231,0.00137
3458.08270,0.00099
3456.02309,0.00096
3453.96348,0.00109
3451.90388,0.00132
3449.84427,0.00165
3447.78466,0.00160
3445.72505,0.00125
3443.66544,0.00126
3441.60583,0.00146
3439.54622,0.00139
3437.48662,0.00108
3435.42701,0.00073
3433.36740,0.00065
3431.30779,0.00089
3429.24818,0.00108
3427.18857,0.00114
3425.12897,0.00109
3423.06936,0.00122
3421.00975,0.00163
3418.95014,0.00173
3416.89053,0.00162
3414.83092,0.00170
3412.77131,0.00160
3410.71171,0.00134
3408.65210,0.00158
3406.59249,0.00179
3404.53288,0.00139
3402.47327,0.00107
3400.41366,0.00130
3398.35405,0.00178
3396.29445,0.00203
3394.23484,0.00217
3392.17523,0.00209
3390.11562,0.00148
3388.05601,0.00079
3385.99640,0.00066
3383.93679,0.00111
3381.87719,0.00174
3379.81758,0.00215
3377.75797,0.00246
3375.69836,0.00263
3373.63875,0.00215
3371.57914,0.00150
3369.51954,0.00167
3367.45993,0.00225
3365.40032,0.00237
3363.34071,0.00225
3361.28110,0.00217
3359.22149,0.00208
3357.16188,0.00207
3355.10228,0.00212
3353.04267,0.00202
3350.98306,0.00163
3348.92345,0.00125
3346.86384,0.00130
3344.80423,0.00167
3342.74462,0.00182
3340.68502,0.00173
3338.62541,0.00182
3336.56580,0.00199
3334.50619,0.00207
3332.44658,0.00204
3330.38697,0.00158
3328.32736,0.00093
3326.26776,0.00076
3324.20815,0.00107
3322.14854,0.00164
3320.08893,0.00207
3318.02932,0.00210
3315.96971,0.00197
3313.91011,0.00171
3311.85050,0.00159
3309.79089,0.00172
3307.73128,0.00176
3305.67167,0.00169
3303.61206,0.00153
3301.55245,0.00128
3299.49285,0.00114
3297.43324,0.00131
3295.37363,0.00154
3293.31402,0.00155
3291.25441,0.00135
3289.19480,0.00104
3287.13519,0.00102
3285.07559,0.00117
3283.01598,0.00104
3280.95637,0.00094
3278.89676,0.00113
3276.83715,0.00122
3274.77754,0.00125
3272.71793,0.00148
3270.65833,0.00157
3268.59872,0.00149
3266.53911,0.00151
3264.47950,0.00146
3262.41989,0.00108
3260.36028,0.00067
3258.30068,0.00053
3256.24107,0.00045
3254.18146,0.00062
3252.12185,0.00112
3250.06224,0.00134
3248.00263,0.00124
3245.94302,0.00107
3243.88342,0.00108
3241.82381,0.00142
3239.76420,0.00158
3237.70459,0.00135
3235.64498,0.00114
3233.58537,0.00107
3231.52576,0.00104
3229.46616,0.00104
3227.40655,0.00107
3225.34694,0.00125
3223.28733,0.00156
3221.22772,0.00158
3219.16811,0.00137
3217.10850,0.00122
3215.04890,0.00125
3212.98929,0.00145
3210.92968,0.00165
3208.87007,0.00171
3206.81046,0.00148
3204.75085,0.00112
3202.69125,0.00107
3200.63164,0.00123
3198.57203,0.00129
3196.51242,0.00131
3194.45281,0.00111
3192.39320,0.00081
3190.33359,0.00094
3188.27399,0.00121
3186.21438,0.00106
3184.15477,0.00084
3182.09516,0.00103
3180.03555,0.00142
3177.97594,0.00176
3175.91633,0.00190
3173.85673,0.00157
3171.79712,0.00107
3169.73751,0.00094
3167.67790,0.00103
3165.61829,0.00093
3163.55868,0.00085
3161.49907,0.00105
3159.43947,0.00113
3157.37986,0.00101
3155.32025,0.00105
3153.26064,0.00118
3151.20103,0.00116
3149.14142,0.00105
3147.08182,0.00109
3145.02221,0.00124
3142.96260,0.00113
3140.90299,0.00068
3138.84338,0.00049
3136.78377,0.00074
3134.72416,0.00102
3132.66456,0.00123
3130.60495,0.00123
3128.54534,0.00113
3126.48573,0.00109
3124.42612,0.00093
3122.36651,0.00074
3120.30690,0.00082
3118.24730,0.00110
3116.18769,0.00114
3114.12808,0.00101
3112.06847,0.00092
3110.00886,0.00078
3107.94925,0.00045
3105.88965,0.00015
3103.83004,0.00030
3101.77043,0.00056
3099.71082,0.00054
3097.65121,0.00061
3095.59160,0.00089
3093.53199,0.00121
3091.47239,0.00141
3089.41278,0.00112
3087.35317,0.00061
3085.29356,0.00057
3083.23395,0.00084
3081.17434,0.00098
3079.11473,0.00104
3077.05513,0.00125
3074.99552,0.00127
3072.93591,0.00106
3070.87630,0.00102
3068.81669,0.00094
3066.75708,0.00064
3064.69747,0.00049
3062.63787,0.00060
3060.57826,0.00077
3058.51865,0.00078
3056.45904,0.00065
3054.39943,0.00045
3052.33982,0.00035
3050.28022,0.00048
3048.22061,0.00053
3046.16100,0.00046
3044.10139,0.00062
3042.04178,0.00078
3039.98217,0.00068
3037.92256,0.00065
3035.86296,0.00084
3033.80335,0.00091
3031.74374,0.00058
3029.68413,0.00020
3027.62452,0.00017
3025.56491,0.00037
3023.50530,0.00054
3021.44570,0.00049
3019.38609,0.00039
3017.32648,0.00061
3015.26687,0.00092
3013.20726,0.00090
3011.14765,0.00067
3009.08804,0.00051
3007.02844,0.00042
3004.96883,0.00027
3002.90922,0.00007
3000.84961,0.00002
2998.79000,0.00026
2996.73039,0.00057
2994.67079,0.00085
2992.61118,0.00107
2990.55157,0.00105
2988.49196,0.00100
2986.43235,0.00103
2984.37274,0.00090
2982.31313,0.00071
2980.25353,0.00081
2978.19392,0.00091
2976.13431,0.00075
2974.07470,0.00056
2972.01509,0.00077
2969.95548,0.00129
2967.89587,0.00153
2965.83627,0.00148
2963.77666,0.00152
2961.71705,0.00177
2959.65744,0.00203
2957.59783,0.00197
2955.53822,0.00177
2953.47861,0.00175
2951.41901,0.00169
2949.35940,0.00155
2947.29979,0.00156
2945.24018,0.00166
2943.18057,0.00168
2941.12096,0.00157
2939.06136,0.00149
2937.00175,0.00171
2934.94214,0.00212
2932.88253,0.00227
2930.82292,0.00227
2928.76331,0.00233
2926.70370,0.00239
2924.64410,0.00263
2922.58449,0.00284
2920.52488,0.00249
2918.46527,0.00192
2916.40566,0.00187
2914.34605,0.00211
2912.28644,0.00210
2910.22684,0.00196
2908.16723,0.00180
2906.10762,0.00168
2904.04801,0.00161
2901.98840,0.00145
2899.92879,0.00145
2897.86918,0.00175
2895.80958,0.00179
2893.74997,0.00145
2891.69036,0.00136
2889.63075,0.00167
2887.57114,0.00184
2885.51153,0.00161
2883.45193,0.00139
2881.39232,0.00164
2879.33271,0.00208
2877.27310,0.00210
2875.21349,0.00177
2873.15388,0.00156
2871.09427,0.00161
2869.03467,0.00176
2866.97506,0.00184
2864.91545,0.00193
2862.85584,0.00203
2860.79623,0.00204
2858.73662,0.00194
2856.67701,0.00182
2854.61741,0.00166
2852.55780,0.00145
2850.49819,0.00127
2848.43858,0.00129
2846.37897,0.00131
2844.31936,0.00113
2842.25975,0.00123
2840.20015,0.00152
2838.14054,0.00147
2836.08093,0.00117
2834.02132,0.00092
2831.96171,0.00092
2829.90210,0.00105
2827.84250,0.00103
2825.78289,0.00096
2823.72328,0.00083
2821.66367,0.00069
2819.60406,0.00075
2817.54445,0.00084
2815.48484,0.00074
2813.42524,0.00059
2811.36563,0.00064
2809.30602,0.00082
2807.24641,0.00088
2805.18680,0.00076
2803.12719,0.00068
2801.06758,0.00075
2799.00798,0.00073
2796.94837,0.00066
2794.88876,0.00066
2792.82915,0.00061
2790.76954,0.00057
2788.70993,0.00067
2786.65032,0.00084
2784.59072,0.00079
2782.53111,0.00057
2780.47150,0.00062
2778.41189,0.00088
2776.35228,0.00101
2774.29267,0.00100
2772.23307,0.00088
2770.17346,0.00066
2768.11385,0.00055
2766.05424,0.00071
2763.99463,0.00085
2761.93502,0.00074
2759.87541,0.00047
2757.81581,0.00027
2755.75620,0.00022
2753.69659,0.00023
2751.63698,0.00045
2749.57737,0.00080
2747.51776,0.00098
2745.45815,0.00095
2743.39855,0.00085
2741.33894,0.00078
2739.27933,0.00075
2737.21972,0.00080
2735.16011,0.00087
2733.10050,0.00082
2731.04089,0.00076
2728.98129,0.00069
2726.92168,0.00052
2724.86207,0.00048
2722.80246,0.00062
2720.74285,0.00066
2718.68324,0.00070
2716.62364,0.00099
2714.56403,0.00119
2712.50442,0.00094
2710.44481,0.00062
2708.38520,0.00058
2706.32559,0.00071
2704.26598,0.00070
2702.20638,0.00057
2700.14677,0.00061
2698.08716,0.00080
2696.02755,0.00090
2693.96794,0.00086
2691.90833,0.00073
2689.84872,0.00055
2687.78912,0.00032
2685.72951,0.00025
2683.66990,0.00048
2681.61029,0.00080
2679.55068,0.00089
2677.49107,0.00069
2675.43146,0.00050
2673.37186,0.00046
2671.31225,0.00050
2669.25264,0.00054
2667.19303,0.00047
2665.13342,0.00036
2663.07381,0.00023
2661.01421,0.00015
2658.95460,0.00025
2656.89499,0.00053
2654.83538,0.00082
2652.77577,0.00094
2650.71616,0.00087
2648.65655,0.00075
2646.59695,0.00065
2644.53734,0.00053
2642.47773,0.00041
2640.41812,0.00043
2638.35851,0.00068
2636.29890,0.00086
2634.23929,0.00079
2632.17969,0.00071
2630.12008,0.00082
2628.06047,0.00098
2626.00086,0.00106
2623.94125,0.00114
2621.88164,0.00115
2619.82203,0.00100
2617.76243,0.00095
2615.70282,0.00098
2613.64321,0.00084
2611.58360,0.00058
2609.52399,0.00045
2607.46438,0.00053
2605.40478,0.00072
2603.34517,0.00082
2601.28556,0.00083
2599.22595,0.00086
2597.16634,0.00090
2595.10673,0.00084
2593.04712,0.00060
2590.98752,0.00034
2588.92791,0.00021
2586.86830,0.00038
2584.80869,0.00093
2582.74908,0.00129
2580.68947,0.00096
2578.62986,0.00045
2576.57026,0.00035
2574.51065,0.00042
2572.45104,0.00032
2570.39143,0.00027
2568.33182,0.00046
2566.27221,0.00078
2564.21260,0.00097
2562.15300,0.00068
2560.09339,0.00019
2558.03378,-0.00013
2555.97417,-0.00022
2553.91456,0.00002
2551.85495,0.00037
2549.79535,0.00052
2547.73574,0.00034
2545.67613,0.00005
2543.61652,-0.00023
2541.55691,-0.00037
2539.49730,0.00001
2537.43769,0.00041
2535.37809,0.00034
2533.31848,0.00021
2531.25887,0.00015
2529.19926,-0.00004
2527.13965,-0.00004
2525.08004,0.00028
2523.02043,0.00028
2520.96083,-0.00022
2518.90122,-0.00040
2516.84161,-0.00010
2514.78200,0.00002
2512.72239,-0.00019
2510.66278,-0.00042
2508.60317,-0.00016
2506.54357,0.00039
2504.48396,0.00052
2502.42435,0.00051
2500.36474,0.00070
2498.30513,0.00079
2496.24552,0.00058
2494.18592,0.00021
2492.12631,0.00015
2490.06670,0.00055
2488.00709,0.00072
2485.94748,0.00043
2483.88787,0.00031
2481.82826,0.00054
2479.76866,0.00061
2477.70905,0.00060
2475.64944,0.00071
2473.58983,0.00058
2471.53022,0.00033
2469.47061,0.00036
2467.41100,0.00033
2465.35140,0.00003
2463.29179,-0.00020
2461.23218,-0.00017
2459.17257,0.00018
2457.11296,0.00053
2455.05335,0.00039
2452.99374,0.00022
2450.93414,0.00040
2448.87453,0.00049
2446.81492,0.00037
2444.75531,0.00034
2442.69570,0.00046
2440.63609,0.00057
2438.57649,0.00050
2436.51688,0.00030
2434.45727,0.00037
2432.39766,0.00059
2430.33805,0.00050
2428.27844,0.00047
2426.21883,0.00074
2424.15923,0.00082
2422.09962,0.00050
2420.04001,0.00015
2417.98040,0.00016
2415.92079,0.00043
2413.86118,0.00077
2411.80157,0.00089
2409.74197,0.00053
2407.68236,0.00010
2405.62275,0.00003
2403.56314,0.00022
2401.50353,0.00047
2399.44392,0.00052
2397.38431,0.00030
2395.32471,0.00008
2393.26510,0.00006
2391.20549,0.00014
2389.14588,-0.00001
2387.08627,-0.00030
2385.02666,-0.00027
2382.96706,0.00002
2380.90745,0.00028
2378.84784,0.00045
2376.78823,0.00035
2374.72862,0.00039
2372.66901,0.00094
2370.60940,0.00124
2368.54980,0.00106
2366.49019,0.00060
2364.43058,-0.00020
2362.37097,-0.00048
2360.31136,0.00026
2358.25175,0.00076
2356.19214,0.00042
2354.13254,0.00003
2352.07293,-0.00017
2350.01332,-0.00018
2347.95371,0.00005
2345.89410,0.00030
2343.83449,0.00043
2341.77488,0.00046
2339.71528,0.00021
2337.65567,-0.00015
2335.59606,-0.00016
2333.53645,0.00008
2331.47684,0.00039
2329.41723,0.00060
2327.35763,0.00054
2325.29802,0.00037
2323.23841,0.00031
2321.17880,0.00049
2319.11919,0.00090
2317.05958,0.00116
2314.99997,0.00095
2312.94037,0.00072
2310.88076,0.00080
2308.82115,0.00075
2306.76154,0.00022
2304.70193,-0.00043
2302.64232,-0.00057
2300.58271,-0.00031
2298.52311,0.00007
2296.46350,0.00049
2294.40389,0.00044
2292.34428,0.00010
2290.28467,0.00017
2288.22506,0.00042
2286.16545,0.00074
2284.10585,0.00102
2282.04624,0.00078
2279.98663,0.00041
2277.92702,0.00019
2275.86741,0.00003
2273.80780,0.00034
2271.74820,0.00122
2269.68859,0.00191
2267.62898,0.00165
2265.56937,0.00100
2263.50976,0.00073
2261.45015,0.00019
2259.39054,-0.00050
2257.33094,-0.00025
2255.27133,0.00055
2253.21172,0.00102
2251.15211,0.00107
2249.09250,0.00081
2247.03289,0.00059
2244.97328,0.00068
2242.91368,0.00062
2240.85407,0.00010
2238.79446,-0.00058
2236.73485,-0.00093
2234.67524,-0.00075
2232.61563,-0.00005
2230.55602,0.00118
2228.49642,0.00214
2226.43681,0.00234
2224.37720,0.00222
2222.31759,0.00177
2220.25798,0.00120
2218.19837,0.00088
2216.13877,0.00042
2214.07916,-0.00021
2212.01955,-0.00026
2209.95994,0.00017
2207.90033,0.00016
2205.84072,-0.00020
2203.78111,0.00011
2201.72151,0.00093
2199.66190,0.00117
2197.60229,0.00094
2195.54268,0.00028
2193.48307,-0.00073
2191.42346,-0.00044
2189.36385,0.00157
2187.30425,0.00337
2185.24464,0.00314
2183.18503,0.00135
2181.12542,0.00034
2179.06581,0.00038
2177.00620,0.00040
2174.94659,0.00028
2172.88699,0.00023
2170.82738,0.00068
2168.76777,0.00171
2166.70816,0.00239
2164.64855,0.00164
2162.58894,0.00044
2160.52934,0.00023
2158.46973,0.00017
2156.41012,-0.00035
2154.35051,-0.00033
2152.29090,-0.00030
2150.23129,-0.00108
2148.17168,-0.00145
2146.11208,-0.00062
2144.05247,0.00017
2141.99286,-0.00011
2139.93325,-0.00049
2137.87364,-0.00034
2135.81403,-0.00025
2133.75442,-0.00044
2131.69482,-0.00043
2129.63521,0.00020
2127.57560,0.00063
2125.51599,0.00027
2123.45638,-0.00001
2121.39677,0.00042
2119.33716,0.00085
2117.27756,0.00064
2115.21795,0.00013
2113.15834,-0.00002
2111.09873,0.00018
2109.03912,-0.00004
2106.97951,-0.00042
2104.91991,0.00015
2102.86030,0.00111
2100.80069,0.00124
2098.74108,0.00091
2096.68147,0.00088
2094.62186,0.00099
2092.56225,0.00108
2090.50265,0.00114
2088.44304,0.00090
2086.38343,0.00045
2084.32382,0.00010
2082.26421,-0.00009
2080.20460,-0.00000
2078.14499,0.00000
2076.08539,-0.00056
2074.02578,-0.00113
2071.96617,-0.00077
2069.90656,0.00038
2067.84695,0.00125
2065.78734,0.00129
2063.72773,0.00105
2061.66813,0.00104
2059.60852,0.00072
2057.54891,0.00002
2055.48930,-0.00038
2053.42969,-0.00043
2051.37008,-0.00012
2049.31048,-0.00016
2047.25087,-0.00120
2045.19126,-0.00178
2043.13165,-0.00102
2041.07204,-0.00005
2039.01243,0.00017
2036.95282,0.00017
2034.89322,0.00101
2032.83361,0.00190
2030.77400,0.00166
2028.71439,0.00127
2026.65478,0.00101
2024.59517,0.00022
2022.53556,-0.00017
2020.47596,0.00057
2018.41635,0.00173
2016.35674,0.00209
2014.29713,0.00108
2012.23752,-0.00055
2010.17791,-0.00138
2008.11830,-0.00132
2006.05870,-0.00114
2003.99909,-0.00127
2001.93948,-0.00138
1999.87987,-0.00060
1997.82026,0.00039
1995.76065,0.00040
1993.70105,-0.00012
1991.64144,-0.00027
1989.58183,0.00041
1987.52222,0.00137
1985.46261,0.00155
1983.40300,0.00117
1981.34339,0.00098
1979.28379,0.00056
1977.22418,0.00027
1975.16457,0.00055
1973.10496,-0.00006
1971.04535,-0.00120
1968.98574,-0.00122
1966.92613,-0.00030
1964.86653,0.00019
1962.80692,-0.00017
1960.74731,-0.00045
1958.68770,-0.00036
1956.62809,-0.00053
1954.56848,-0.00062
1952.50887,0.00015
1950.44927,0.00121
1948.38966,0.00117
1946.33005,0.00026
1944.27044,-0.00022
1942.21083,-0.00043
1940.15122,-0.00077
1938.09162,-0.00051
1936.03201,0.00000
1933.97240,0.00005
1931.91279,0.00002
1929.85318,0.00007
1927.79357,-0.00018
1925.73396,-0.00028
1923.67436,-0.00004
1921.61475,0.00002
1919.55514,0.00003
1917.49553,0.00006
1915.43592,-0.00012
1913.37631,-0.00019
1911.31670,0.00000
1909.25710,0.00018
1907.19749,0.00016
1905.13788,0.00027
1903.07827,0.00044
1901.01866,0.00020
1898.95905,-0.00013
1896.89944,-0.00028
1894.83984,-0.00043
1892.78023,-0.00040
1890.72062,-0.00027
1888.66101,-0.00025
1886.60140,-0.00026
1884.54179,-0.00010
1882.48219,0.00018
1880.42258,0.00039
1878.36297,0.00055
1876.30336,0.00059
1874.24375,0.00057
1872.18414,0.00065
1870.12453,0.00074
1868.06493,0.00060
1866.00532,0.00037
1863.94571,0.00032
1861.88610,0.00044
1859.82649,0.00061
1857.76688,0.00073
1855.70727,0.00071
1853.64767,0.00058
1851.58806,0.00041
1849.52845,0.00022
1847.46884,0.00009
1845.40923,0.00019
1843.34962,0.00035
1841.29002,0.00052
1839.23041,0.00059
1837.17080,0.00048
1835.11119,0.00047
1833.05158,0.00065
1830.99197,0.00067
1828.93236,0.00051
1826.87276,0.00054
1824.81315,0.00068
1822.75354,0.00059
1820.69393,0.00033
1818.63432,0.00005
1816.57471,-0.00004
1814.51510,0.00023
1812.45550,0.00055
1810.39589,0.00056
1808.33628,0.00048
1806.27667,0.00047
1804.21706,0.00048
1802.15745,0.00052
1800.09784,0.00054
1798.03824,0.00051
1795.97863,0.00056
1793.91902,0.00076
1791.85941,0.00095
1789.79980,0.00080
1787.74019,0.00045
1785.68059,0.00019
1783.62098,0.00021
1781.56137,0.00041
1779.50176,0.00056
1777.44215,0.00056
1775.38254,0.00055
1773.32293,0.00053
1771.26333,0.00045
1769.20372,0.00038
1767.14411,0.00033
1765.08450,0.00028
1763.02489,0.00033
1760.96528,0.00052
1758.90567,0.00076
1756.84607,0.00087
1754.78646,0.00079
1752.72685,0.00078
1750.66724,0.00102
1748.60763,0.00117
1746.54802,0.00112
1744.48841,0.00118
1742.42881,0.00130
1740.36920,0.00132
1738.30959,0.00139
1736.24998,0.00162
1734.19037,0.00188
1732.13076,0.00184
1730.07116,0.00171
1728.01155,0.00169
1725.95194,0.00172
1723.89233,0.00177
1721.83272,0.00180
1719.77311,0.00170
1717.71350,0.00150
1715.65390,0.00145
1713.59429,0.00157
1711.53468,0.00156
1709.47507,0.00139
1707.41546,0.00126
1705.35585,0.00122
1703.29624,0.00118
1701.23664,0.00118
1699.17703,0.00129
1697.11742,0.00136
1695.05781,0.00125
1692.99820,0.00118
1690.93859,0.00123
1688.87898,0.00124
1686.81938,0.00121
1684.75977,0.00121
1682.70016,0.00110
1680.64055,0.00096
1678.58094,0.00091
1676.52133,0.00096
1674.46173,0.00107
1672.40212,0.00117
1670.34251,0.00114
1668.28290,0.00104
1666.22329,0.00094
1664.16368,0.00087
1662.10407,0.00090
1660.04447,0.00099
1657.98486,0.00110
1655.92525,0.00121
1653.86564,0.00120
1651.80603,0.00105
1649.74642,0.00106
1647.68681,0.00118
1645.62721,0.00125
1643.56760,0.00126
1641.50799,0.00129
1639.44838,0.00136
1637.38877,0.00143
1635.32916,0.00130
1633.26955,0.00116
1631.20995,0.00122
1629.15034,0.00131
1627.09073,0.00123
1625.03112,0.00115
1622.97151,0.00118
1620.91190,0.00115
1618.85230,0.00101
1616.79269,0.00093
1614.73308,0.00095
1612.67347,0.00097
1610.61386,0.00089
1608.55425,0.00080
1606.49464,0.00089
1604.43504,0.00105
1602.37543,0.00110
1600.31582,0.00104
1598.25621,0.00099
1596.19660,0.00102
1594.13699,0.00107
1592.07738,0.00101
1590.01778,0.00087
1587.95817,0.00078
1585.89856,0.00078
1583.83895,0.00078
1581.77934,0.00078
1579.71973,0.00077
1577.66012,0.00074
1575.60052,0.00072
1573.54091,0.00067
1571.48130,0.00053
1569.42169,0.00047
1567.36208,0.00060
1565.30247,0.00073
1563.24287,0.00085
1561.18326,0.00102
1559.12365,0.00113
1557.06404,0.00107
1555.00443,0.00093
1552.94482,0.00079
1550.88521,0.00079
1548.82561,0.00089
1546.76600,0.00102
1544.70639,0.00112
1542.64678,0.00106
1540.58717,0.00083
1538.52756,0.00059
1536.46795,0.00057
1534.40835,0.00073
1532.34874,0.00088
1530.28913,0.00091
1528.22952,0.00088
1526.16991,0.00086
1524.11030,0.00087
1522.05069,0.00085
1519.99109,0.00081
1517.93148,0.00081
1515.87187,0.00080
1513.81226,0.00081
1511.75265,0.00086
1509.69304,0.00077
1507.63344,0.00064
1505.57383,0.00068
1503.51422,0.00074
1501.45461,0.00079
1499.39500,0.00089
1497.33539,0.00093
1495.27578,0.00086
1493.21618,0.00081
1491.15657,0.00082
1489.09696,0.00089
1487.03735,0.00086
1484.97774,0.00077
1482.91813,0.00081
1480.85852,0.00089
1478.79892,0.00098
1476.73931,0.00103
1474.67970,0.00098
1472.62009,0.00087
1470.56048,0.00086
1468.50087,0.00099
1466.44126,0.00114
1464.38166,0.00119
1462.32205,0.00118
1460.26244,0.00124
1458.20283,0.00136
1456.14322,0.00139
1454.08361,0.00129
1452.02401,0.00114
1449.96440,0.00104
1447.90479,0.00105
1445.84518,0.00114
1443.78557,0.00118
1441.72596,0.00110
1439.66635,0.00102
1437.60675,0.00106
1435.54714,0.00110
1433.48753,0.00099
1431.42792,0.00082
1429.36831,0.00073
1427.30870,0.00073
1425.24909,0.00075
1423.18949,0.00083
1421.12988,0.00098
1419.07027,0.00114
1417.01066,0.00119
1414.95105,0.00111
1412.89144,0.00101
1410.83183,0.00096
1408.77223,0.00098
1406.71262,0.00106
1404.65301,0.00112
1402.59340,0.00118
1400.53379,0.00125
1398.47418,0.00130
1396.41458,0.00137
1394.35497,0.00141
1392.29536,0.00131
1390.23575,0.00117
1388.17614,0.00111
1386.11653,0.00103
1384.05692,0.00089
1381.99732,0.00087
1379.93771,0.00098
1377.87810,0.00105
1375.81849,0.00109
1373.75888,0.00109
1371.69927,0.00095
1369.63966,0.00084
1367.58006,0.00085
1365.52045,0.00093
1363.46084,0.00101
1361.40123,0.00098
1359.34162,0.00089
1357.28201,0.00085
1355.22240,0.00087
1353.16280,0.00087
1351.10319,0.00091
1349.04358,0.00099
1346.98397,0.00103
1344.92436,0.00099
1342.86475,0.00096
1340.80515,0.00101
1338.74554,0.00108
1336.68593,0.00110
1334.62632,0.00105
1332.56671,0.00099
1330.50710,0.00098
1328.44749,0.00104
1326.38789,0.00106
1324.32828,0.00101
1322.26867,0.00097
1320.20906,0.00099
1318.14945,0.00103
1316.08984,0.00104
1314.03023,0.00101
1311.97063,0.00094
1309.91102,0.00085
1307.85141,0.00082
1305.79180,0.00084
1303.73219,0.00087
1301.67258,0.00089
1299.61297,0.00092
1297.55337,0.00099
1295.49376,0.00106
1293.43415,0.00111
1291.37454,0.00109
1289.31493,0.00103
1287.25532,0.00110
1285.19572,0.00115
1283.13611,0.00114
1281.07650,0.00129
1279.01689,0.00159
1276.95728,0.00191
1274.89767,0.00231
1272.83806,0.00272
1270.77846,0.00298
1268.71885,0.00301
1266.65924,0.00284
1264.59963,0.00251
1262.54002,0.00222
1260.48041,0.00214
1258.42080,0.00217
1256.36120,0.00216
1254.30159,0.00213
1252.24198,0.00219
1250.18237,0.00230
1248.12276,0.00238
1246.06315,0.00247
1244.00354,0.00252
1241.94394,0.00253
1239.88433,0.00258
1237.82472,0.00276
1235.76511,0.00294
1233.70550,0.00302
1231.64589,0.00307
1229.58629,0.00318
1227.52668,0.00329
1225.46707,0.00339
1223.40746,0.00344
1221.34785,0.00349
1219.28824,0.00359
1217.22863,0.00367
1215.16903,0.00374
1213.10942,0.00386
1211.04981,0.00402
1208.99020,0.00418
1206.93059,0.00431
1204.87098,0.00443
1202.81137,0.00455
1200.75177,0.00470
1198.69216,0.00476
1196.63255,0.00475
1194.57294,0.00483
1192.51333,0.00488
1190.45372,0.00483
1188.39411,0.00487
1186.33451,0.00501
1184.27490,0.00510
1182.21529,0.00514
1180.15568,0.00523
1178.09607,0.00539
1176.03646,0.00555
1173.97686,0.00559
1171.91725,0.00561
1169.85764,0.00577
1167.79803,0.00603
1165.73842,0.00630
1163.67881,0.00650
1161.61920,0.00658
1159.55960,0.00664
1157.49999,0.00677
1155.44038,0.00691
1153.38077,0.00714
1151.32116,0.00743
1149.26155,0.00765
1147.20194,0.00779
1145.14234,0.00793
1143.08273,0.00808
1141.02312,0.00830
1138.96351,0.00858
1136.90390,0.00884
1134.84429,0.00908
1132.78468,0.00931
1130.72508,0.00952
1128.66547,0.00978
1126.60586,0.01005
1124.54625,0.01020
1122.48664,0.01024
1120.42703,0.01026
1118.36743,0.01032
1116.30782,0.01039
1114.24821,0.01046
1112.18860,0.01057
1110.12899,0.01073
1108.06938,0.01085
1106.00977,0.01085
1103.95017,0.01086
1101.89056,0.01102
1099.83095,0.01125
1097.77134,0.01134
1095.71173,0.01137
1093.65212,0.01142
1091.59251,0.01139
1089.53291,0.01140
1087.47330,0.01155
1085.41369,0.01163
1083.35408,0.01155
1081.29447,0.01145
1079.23486,0.01143
1077.17525,0.01146
1075.11565,0.01149
1073.05604,0.01150
1070.99643,0.01154
1068.93682,0.01165
1066.87721,0.01172
1064.81760,0.01169
1062.75800,0.01170
1060.69839,0.01176
1058.63878,0.01173
1056.57917,0.01162
1054.51956,0.01153
1052.45995,0.01152
1050.40034,0.01154
1048.34074,0.01157
1046.28113,0.01161
1044.22152,0.01171
1042.16191,0.01187
1040.10230,0.01200
1038.04269,0.01213
1035.98308,0.01220
1033.92348,0.01213
1031.86387,0.01214
1029.80426,0.01236
1027.74465,0.01270
1025.68504,0.01299
1023.62543,0.01316
1021.56582,0.01326
1019.50622,0.01334
1017.44661,0.01340
1015.38700,0.01340
1013.32739,0.01343
1011.26778,0.01357
1009.20817,0.01375
1007.14857,0.01388
1005.08896,0.01404
1003.02935,0.01428
1000.96974,0.01448
998.91013,0.01449
996.85052,0.01434
994.79091,0.01420
992.73131,0.01404
990.67170,0.01378
988.61209,0.01341
986.55248,0.01295
984.49287,0.01247
982.43326,0.01205
980.37365,0.01170
978.31405,0.01134
976.25444,0.01098
974.19483,0.01061
972.13522,0.01018
970.07561,0.00980
968.01600,0.00945
965.95639,0.00920
963.89679,0.00906
961.83718,0.00890
959.77757,0.00867
957.71796,0.00851
955.65835,0.00835
953.59874,0.00807
951.53914,0.00776
949.47953,0.00753
947.41992,0.00733
945.36031,0.00713
943.30070,0.00704
941.24109,0.00703
939.18148,0.00701
937.12188,0.00690
935.06227,0.00670
933.00266,0.00656
930.94305,0.00653
928.88344,0.00647
926.82383,0.00637
924.76422,0.00625
922.70462,0.00615
920.64501,0.00608
918.58540,0.00604
916.52579,0.00599
914.46618,0.00590
912.40657,0.00584
910.34696,0.00572
908.28736,0.00547
906.22775,0.00519
904.16814,0.00494
902.10853,0.00474
900.04892,0.00461
897.98931,0.00451
895.92971,0.00441
893.87010,0.00439
891.81049,0.00453
889.75088,0.00469
887.69127,0.00467
885.63166,0.00452
883.57205,0.00440
881.51245,0.00432
879.45284,0.00426
877.39323,0.00416
875.33362,0.00404
873.27401,0.00398
871.21440,0.00383
869.15479,0.00362
867.09519,0.00363
865.03558,0.00387
862.97597,0.00396
860.91636,0.00377
858.85675,0.00355
856.79714,0.00349
854.73753,0.00351
852.67793,0.00359
850.61832,0.00366
848.55871,0.00369
846.49910,0.00378
844.43949,0.00393
842.37988,0.00413
840.32028,0.00430
838.26067,0.00438
836.20106,0.00447
834.14145,0.00458
832.08184,0.00475
830.02223,0.00496
827.96262,0.00503
825.90302,0.00499
823.84341,0.00513
821.78380,0.00537
819.72419,0.00554
817.66458,0.00566
815.60497,0.00578
813.54536,0.00593
811.48576,0.00605
809.42615,0.00609
807.36654,0.00620
805.30693,0.00649
803.24732,0.00676
801.18771,0.00687
799.12810,0.00684
797.06850,0.00673
795.00889,0.00673
792.94928,0.00685
790.88967,0.00694
788.83006,0.00701
786.77045,0.00713
784.71085,0.00730
782.65124,0.00753
780.59163,0.00766
778.53202,0.00766
776.47241,0.00777
774.41280,0.00801
772.35319,0.00816
770.29359,0.00816
768.23398,0.00813
766.17437,0.00812
764.11476,0.00809
762.05515,0.00795
759.99554,0.00767
757.93593,0.00736
755.87633,0.00715
753.81672,0.00706
751.75711,0.00696
749.69750,0.00675
747.63789,0.00656
745.57828,0.00650
743.51867,0.00640
741.45907,0.00622
739.39946,0.00612
737.33985,0.00598
735.28024,0.00568
733.22063,0.00550
731.16102,0.00553
729.10142,0.00552
727.04181,0.00549
724.98220,0.00546
722.92259,0.00532
720.86298,0.00512
718.80337,0.00503
716.74376,0.00505
714.68416,0.00504
712.62455,0.00502
710.56494,0.00505
708.50533,0.00510
706.44572,0.00511
704.38611,0.00502
702.32650,0.00489
700.26690,0.00484
698.20729,0.00483
696.14768,0.00476
694.08807,0.00467
692.02846,0.00465
689.96885,0.00468
687.90924,0.00461
685.84964,0.00451
683.79003,0.00452
681.73042,0.00451
679.67081,0.00451
677.61120,0.00454
675.55159,0.00448
673.49199,0.00435
671.43238,0.00432
669.37277,0.00433
667.31316,0.00420
665.25355,0.00402
663.19394,0.00394
661.13433,0.00401
659.07473,0.00403
657.01512,0.00393
654.95551,0.00376
652.89590,0.00356
650.83629,0.00354
648.77668,0.00368
646.71707,0.00380
644.65747,0.00385
642.59786,0.00372
640.53825,0.00351
638.47864,0.00334
636.41903,0.00323
634.35942,0.00324
632.29981,0.00326
630.24021,0.00327
628.18060,0.00335
626.12099,0.00345
624.06138,0.00348
622.00177,0.00347
619.94216,0.00343
617.88256,0.00336
615.82295,0.00335
613.76334,0.00347
611.70373,0.00362
609.64412,0.00370
607.58451,0.00370
605.52490,0.00372
603.46530,0.00375
601.40569,0.00373
599.34608,0.00369
597.28647,0.00362
595.22686,0.00362
593.16725,0.00373
591.10764,0.00370
589.04804,0.00350
586.98843,0.00354
584.92882,0.00389
582.86921,0.00411
580.80960,0.00403
578.74999,0.00398
576.69039,0.00405
574.63078,0.00410
572.57117,0.00408
570.51156,0.00407
568.45195,0.00406
566.39234,0.00401
564.33273,0.00404
562.27313,0.00428
560.21352,0.00462
558.15391,0.00488
556.09430,0.00501
554.03469,0.00506
551.97508,0.00524
549.91547,0.00551
547.85587,0.00560
545.79626,0.00547
543.73665,0.00529
541.67704,0.00525
539.61743,0.00520
537.55782,0.00505
535.49821,0.00503
533.43861,0.00521
531.37900,0.00529
529.31939,0.00512
527.25978,0.00503
525.20017,0.00516
523.14056,0.00512
521.08096,0.00498
519.02135,0.00493
516.96174,0.00498
514.90213,0.00514
512.84252,0.00532
510.78291,0.00538
508.72330,0.00527
506.66370,0.00531
504.60409,0.00547
502.54448,0.00556
500.48487,0.00565
498.42526,0.00572
496.36565,0.00589
494.30604,0.00637
492.24644,0.00702
490.18683,0.00752
488.12722,0.00803
486.06761,0.00869
484.00800,0.00934
481.94839,0.00987
479.88878,0.01022
477.82918,0.01053
475.76957,0.01074
473.70996,0.01073
471.65035,0.01082
469.59074,0.01103
467.53113,0.01126
465.47153,0.01161
463.41192,0.01191
461.35231,0.01185
459.29270,0.01163
457.23309,0.01155
455.17348,0.01159
453.11387,0.01169
451.05427,0.01162
448.99466,0.01131
446.93505,0.01115
444.87544,0.01123
442.81583,0.01113
440.75622,0.01080
438.69661,0.01061
436.63701,0.01070
434.57740,0.01077
432.51779,0.01068
430.45818,0.01076
428.39857,0.01098
426.33896,0.01099
424.27935,0.01086
422.21975,0.01060
420.16014,0.01004
418.10053,0.00968
416.04092,0.01004
413.98131,0.01023
411.92170,0.00987
409.86210,0.00944
407.80249,0.00924
405.74288,0.00931
403.68327,0.00956
401.62366,0.00976
399.56405,0.00973
397.50444,0.00977
395.44484,0.00989
393.38523,0.00957
391.32562,0.00915
389.26601,0.00886
387.20640,0.00861
385.14679,0.00861
383.08718,0.00871
381.02758,0.00872
378.96797,0.00865
376.90836,0.00868
374.84875,0.00918
372.78914,0.00952
370.72953,0.00886
368.66992,0.00772
366.61032,0.00716
364.55071,0.00705
362.49110,0.00670
360.43149,0.00648
358.37188,0.00666
356.31227,0.00632
354.25267,0.00573
352.19306,0.00557
350.13345,0.00546
348.07384,0.00535
346.01423,0.00549
343.95462,0.00624
341.89501,0.00760
339.83541,0.00798
337.77580,0.00636
335.71619,0.00439
333.65658,0.00350
331.59697,0.00366
329.53736,0.00451
327.47775,0.00754
325.41815,0.01089
323.35854,0.01019
321.29893,0.00797
319.23932,0.00743
317.17971,0.00833
315.12010,0.00855
313.06049,0.00575
311.00089,0.00032
308.94128,-0.00357
306.88167,0.00311
304.82206,0.01610
302.76245,0.01375
300.70284,-0.01055
298.64324,-0.02264
296.58363,-0.01871
294.52402,-0.02323
292.46441,-0.05902
290.40480,-0.07019
288.34519,-0.03552
286.28558,-0.04398
284.22598,-0.14495
282.16637,-0.16805
280.10676,-0.00944
278.04715,0.01514
275.98754,-0.06383
273.92793,-0.06197
271.86832,-0.02869
269.80872,-0.07218
267.74911,0.00086
265.68950,0.09364
263.62989,0.06596
261.57028,0.04360
259.51067,0.02642
257.45106,0.06394
255.39146,0.00006
253.33185,-0.01457
251.27224,0.00935
249.21263,0.00997
247.15302,-0.02545
245.09341,-0.06386
243.03381,-0.04494
240.97420,0.00899
238.91459,0.00921
236.85498,-0.03652
234.79537,-0.04508
232.73576,0.01469
230.67615,0.02160
228.61655,-0.00179
226.55694,0.00897
224.49733,-0.03371
222.43772,-0.03896
220.37811,0.00969
218.31850,-0.03120
216.25889,-0.01842
214.19929,-0.00312
212.13968,-0.01314
210.08007,-0.03508
208.02046,-0.01520
205.96085,0.02077
203.90124,0.01249
201.84163,-0.00244
199.78203,0.03574
197.72242,0.01168
195.66281,-0.00980
193.60320,0.01432
191.54359,-0.02030
189.48398,-0.01572
187.42438,-0.03220
185.36477,-0.03012
183.30516,-0.00637
181.24555,-0.01266
179.18594,-0.00967
177.12633,-0.02299
175.06672,-0.05955
173.00712,0.00133
170.94751,-0.01862
168.88790,-0.06010
166.82829,-0.02784
164.76868,-0.01184
162.70907,-0.00630
160.64946,-0.06982
158.58986,-0.01291
156.53025,0.00556
154.47064,-0.00106
152.41103,-0.02733
150.35142,-0.11288
148.29181,-0.07660
146.23220,-0.04774
144.17260,-0.01225
142.11299,0.02018
140.05338,0.01408
137.99377,0.00151
135.93416,-0.01121
133.87455,-0.05020
131.81495,-0.00584
129.75534,-0.01460
127.69573,-0.02741
125.63612,-0.00626
123.57651,0.04332
121.51690,-0.01757
119.45729,-0.07316
117.39769,-0.06460
115.33808,0.00805
113.27847,0.01945
111.21886,0.05567
109.15925,0.03507
107.09964,-0.00877
105.04003,-0.02921
102.98043,-0.01787
100.92082,-0.00998
98.86121,-0.01292
96.80160,-0.02362
94.74199,-0.00224
92.68238,0.02080
90.62277,0.00293
88.56317,0.00326
86.50356,-0.00890
84.44395,-0.01048
82.38434,-0.00692
80.32473,0.00891
78.26512,0.03606
76.20552,0.03277
74.14591,0.00519
72.08630,-0.01752
70.02669,-0.02481
67.96708,-0.00640
65.90747,0.00507
63.84786,0.01549
61.78826,0.00152
59.72865,0.00144
57.66904,-0.00824
55.60943,-0.01223
53.54982,-0.01168
51.49021,-0.00420
49.43060,0.01020
47.37100,0.02332
45.31139,0.01677
43.25178,-0.00871
41.19217,-0.01373
39.13256,-0.00449
37.07295,-0.00144
35.01334,-0.00785
32.95374,-0.01438
30.89413,-0.01598
28.83452,-0.01206
26.77491,0.00376
24.71530,-0.00022
22.65569,-0.00093
20.59609,0.00297
18.53648,0.00499
16.47687,-0.00003
14.41726,-0.00485
12.35765,-0.00405
10.29804,-0.00321
8.23843,0.00048
6.17883,-0.00011
4.11922,0.00003
2.05961,0.00003
0.00000,-0.00000
