3997.65486	0.09046
3995.59527	0.09162
3993.53569	0.09191
3991.47610	0.09135
3989.41652	0.09092
3987.35693	0.09072
3985.29735	0.09032
3983.23776	0.08976
3981.17817	0.08971
3979.11859	0.09015
3977.05900	0.09036
3974.99942	0.09034
3972.93983	0.09032
3970.88025	0.09017
3968.82066	0.08999
3966.76108	0.08948
3964.70149	0.08852
3962.64191	0.08792
3960.58232	0.08812
3958.52274	0.08864
3956.46315	0.08908
3954.40357	0.08942
3952.34398	0.08979
3950.28440	0.09013
3948.22481	0.09005
3946.16523	0.08965
3944.10564	0.08953
3942.04606	0.08954
3939.98647	0.08926
3937.92689	0.08912
3935.86730	0.08936
3933.80772	0.08939
3931.74813	0.08903
3929.68855	0.08855
3927.62896	0.08803
3925.56937	0.08763
3923.50979	0.08760
3921.45020	0.08818
3919.39062	0.08897
3917.33103	0.08925
3915.27145	0.08889
3913.21186	0.08815
3911.15228	0.08754
3909.09269	0.08762
3907.03311	0.08820
3904.97352	0.08851
3902.91394	0.08856
3900.85435	0.08885
3898.79477	0.08895
3896.73518	0.08821
3894.67560	0.08720
3892.61601	0.08675
3890.55643	0.08697
3888.49684	0.08746
3886.43726	0.08771
3884.37767	0.08749
3882.31809	0.08707
3880.25850	0.08709
3878.19892	0.08764
3876.13933	0.08765
3874.07974	0.08666
3872.02016	0.08566
3869.96057	0.08538
3867.90099	0.08531
3865.84140	0.08523
3863.78182	0.08542
3861.72223	0.08565
3859.66265	0.08561
3857.60306	0.08555
3855.54348	0.08605
3853.48389	0.08667
3851.42431	0.08621
3849.36472	0.08542
3847.30514	0.08496
3845.24555	0.08455
3843.18597	0.08440
3841.12638	0.08487
3839.06680	0.08547
3837.00721	0.08569
3834.94763	0.08561
3832.88804	0.08556
3830.82846	0.08541
3828.76887	0.08487
3826.70929	0.08439
3824.64970	0.08456
3822.59012	0.08510
3820.53053	0.08521
3818.47094	0.08461
3816.41136	0.08373
3814.35177	0.08323
3812.29219	0.08328
3810.23260	0.08340
3808.17302	0.08317
3806.11343	0.08261
3804.05385	0.08206
3801.99426	0.08172
3799.93468	0.08183
3797.87509	0.08244
3795.81551	0.08300
3793.75592	0.08324
3791.69634	0.08325
3789.63675	0.08296
3787.57717	0.08244
3785.51758	0.08211
3783.45800	0.08221
3781.39841	0.08244
3779.33883	0.08217
3777.27924	0.08126
3775.21966	0.08058
3773.16007	0.08086
3771.10049	0.08175
3769.04090	0.08244
3766.98132	0.08256
3764.92173	0.08201
3762.86214	0.08098
3760.80256	0.08013
3758.74297	0.07974
3756.68339	0.07960
3754.62380	0.07944
3752.56422	0.07919
3750.50463	0.07908
3748.44505	0.07899
3746.38546	0.07857
3744.32588	0.07816
3742.26629	0.07821
3740.20671	0.07843
3738.14712	0.07845
3736.08754	0.07833
3734.02795	0.07835
3731.96837	0.07825
3729.90878	0.07775
3727.84920	0.07722
3725.78961	0.07701
3723.73003	0.07722
3721.67044	0.07768
3719.61086	0.07803
3717.55127	0.07802
3715.49169	0.07782
3713.43210	0.07792
3711.37251	0.07840
3709.31293	0.07846
3707.25334	0.07781
3705.19376	0.07719
3703.13417	0.07720
3701.07459	0.07739
3699.01500	0.07705
3696.95542	0.07623
3694.89583	0.07543
3692.83625	0.07511
3690.77666	0.07540
3688.71708	0.07597
3686.65749	0.07622
3684.59791	0.07584
3682.53832	0.07505
3680.47874	0.07429
3678.41915	0.07403
3676.35957	0.07456
3674.29998	0.07529
3672.24040	0.07547
3670.18081	0.07539
3668.12123	0.07541
3666.06164	0.07547
3664.00206	0.07532
3661.94247	0.07476
3659.88289	0.07421
3657.82330	0.07417
3655.76371	0.07433
3653.70413	0.07441
3651.64454	0.07468
3649.58496	0.07498
3647.52537	0.07478
3645.46579	0.07443
3643.40620	0.07449
3641.34662	0.07481
3639.28703	0.07498
3637.22745	0.07515
3635.16786	0.07530
3633.10828	0.07506
3631.04869	0.07463
3628.98911	0.07456
3626.92952	0.07492
3624.86994	0.07529
3622.81035	0.07531
3620.75077	0.07508
3618.69118	0.07492
3616.63160	0.07500
3614.57201	0.07523
3612.51243	0.07554
3610.45284	0.07597
3608.39326	0.07647
3606.33367	0.07676
3604.27408	0.07661
3602.21450	0.07636
3600.15491	0.07666
3598.09533	0.07745
3596.03574	0.07804
3593.97616	0.07805
3591.91657	0.07790
3589.85699	0.07809
3587.79740	0.07851
3585.73782	0.07868
3583.67823	0.07852
3581.61865	0.07846
3579.55906	0.07880
3577.49948	0.07930
3575.43989	0.07955
3573.38031	0.07954
3571.32072	0.07943
3569.26114	0.07939
3567.20155	0.07982
3565.14197	0.08045
3563.08238	0.08057
3561.02280	0.08039
3558.96321	0.08056
3556.90363	0.08104
3554.84404	0.08137
3552.78446	0.08141
3550.72487	0.08137
3548.66528	0.08153
3546.60570	0.08172
3544.54611	0.08196
3542.48653	0.08251
3540.42694	0.08314
3538.36736	0.08378
3536.30777	0.08451
3534.24819	0.08510
3532.18860	0.08520
3530.12902	0.08483
3528.06943	0.08449
3526.00985	0.08459
3523.95026	0.08533
3521.89068	0.08631
3519.83109	0.08660
3517.77151	0.08612
3515.71192	0.08567
3513.65234	0.08564
3511.59275	0.08571
3509.53317	0.08580
3507.47358	0.08651
3505.41400	0.08743
3503.35441	0.08757
3501.29483	0.08732
3499.23524	0.08755
3497.17565	0.08816
3495.11607	0.08856
3493.05648	0.08885
3490.99690	0.08927
3488.93731	0.08939
3486.87773	0.08946
3484.81814	0.09007
3482.75856	0.09101
3480.69897	0.09159
3478.63939	0.09149
3476.57980	0.09119
3474.52022	0.09126
3472.46063	0.09143
3470.40105	0.09144
3468.34146	0.09175
3466.28188	0.09218
3464.22229	0.09250
3462.16271	0.09298
3460.10312	0.09336
3458.04354	0.09353
3455.98395	0.09394
3453.92437	0.09460
3451.86478	0.09512
3449.80520	0.09541
3447.74561	0.09573
3445.68603	0.09622
3443.62644	0.09644
3441.56685	0.09638
3439.50727	0.09638
3437.44768	0.09643
3435.38810	0.09667
3433.32851	0.09732
3431.26893	0.09827
3429.20934	0.09896
3427.14976	0.09927
3425.09017	0.09968
3423.03059	0.10020
3420.97100	0.10038
3418.91142	0.10033
3416.85183	0.10066
3414.79225	0.10139
3412.73266	0.10226
3410.67308	0.10316
3408.61349	0.10346
3406.55391	0.10325
3404.49432	0.10365
3402.43474	0.10465
3400.37515	0.10541
3398.31557	0.10580
3396.25598	0.10623
3394.19640	0.10661
3392.13681	0.10677
3390.07723	0.10670
3388.01764	0.10678
3385.95805	0.10717
3383.89847	0.10745
3381.83888	0.10768
3379.77930	0.10832
3377.71971	0.10938
3375.66013	0.11040
3373.60054	0.11088
3371.54096	0.11076
3369.48137	0.11089
3367.42179	0.11178
3365.36220	0.11279
3363.30262	0.11340
3361.24303	0.11404
3359.18345	0.11505
3357.12386	0.11612
3355.06428	0.11713
3353.00469	0.11830
3350.94511	0.11949
3348.88552	0.12030
3346.82594	0.12084
3344.76635	0.12172
3342.70677	0.12316
3340.64718	0.12459
3338.58760	0.12560
3336.52801	0.12678
3334.46842	0.12848
3332.40884	0.13043
3330.34925	0.13220
3328.28967	0.13373
3326.23008	0.13532
3324.17050	0.13684
3322.11091	0.13800
3320.05133	0.13922
3317.99174	0.14093
3315.93216	0.14284
3313.87257	0.14447
3311.81299	0.14571
3309.75340	0.14711
3307.69382	0.14891
3305.63423	0.15090
3303.57465	0.15289
3301.51506	0.15461
3299.45548	0.15620
3297.39589	0.15780
3295.33631	0.15921
3293.27672	0.16067
3291.21714	0.16243
3289.15755	0.16411
3287.09797	0.16545
3285.03838	0.16658
3282.97880	0.16788
3280.91921	0.16906
3278.85962	0.16951
3276.80004	0.16957
3274.74045	0.16985
3272.68087	0.17013
3270.62128	0.17014
3268.56170	0.17016
3266.50211	0.16989
3264.44253	0.16870
3262.38294	0.16709
3260.32336	0.16588
3258.26377	0.16500
3256.20419	0.16407
3254.14460	0.16274
3252.08502	0.16125
3250.02543	0.16023
3247.96585	0.15944
3245.90626	0.15842
3243.84668	0.15707
3241.78709	0.15570
3239.72751	0.15497
3237.66792	0.15480
3235.60834	0.15441
3233.54875	0.15353
3231.48917	0.15259
3229.42958	0.15194
3227.36999	0.15161
3225.31041	0.15108
3223.25082	0.15000
3221.19124	0.14893
3219.13165	0.14823
3217.07207	0.14771
3215.01248	0.14736
3212.95290	0.14697
3210.89331	0.14631
3208.83373	0.14571
3206.77414	0.14549
3204.71456	0.14524
3202.65497	0.14459
3200.59539	0.14377
3198.53580	0.14304
3196.47622	0.14252
3194.41663	0.14205
3192.35705	0.14128
3190.29746	0.14041
3188.23788	0.13966
3186.17829	0.13862
3184.11871	0.13728
3182.05912	0.13623
3179.99954	0.13551
3177.93995	0.13466
3175.88037	0.13366
3173.82078	0.13285
3171.76119	0.13210
3169.70161	0.13092
3167.64202	0.12954
3165.58244	0.12843
3163.52285	0.12761
3161.46327	0.12702
3159.40368	0.12636
3157.34410	0.12529
3155.28451	0.12416
3153.22493	0.12342
3151.16534	0.12282
3149.10576	0.12206
3147.04617	0.12137
3144.98659	0.12067
3142.92700	0.11989
3140.86742	0.11920
3138.80783	0.11839
3136.74825	0.11749
3134.68866	0.11682
3132.62908	0.11615
3130.56949	0.11525
3128.50991	0.11445
3126.45032	0.11400
3124.39074	0.11368
3122.33115	0.11350
3120.27156	0.11351
3118.21198	0.11344
3116.15239	0.11316
3114.09281	0.11275
3112.03322	0.11224
3109.97364	0.11182
3107.91405	0.11174
3105.85447	0.11176
3103.79488	0.11165
3101.73530	0.11177
3099.67571	0.11221
3097.61613	0.11243
3095.55654	0.11219
3093.49696	0.11189
3091.43737	0.11178
3089.37779	0.11178
3087.31820	0.11210
3085.25862	0.11281
3083.19903	0.11330
3081.13945	0.11334
3079.07986	0.11328
3077.02028	0.11324
3074.96069	0.11327
3072.90111	0.11350
3070.84152	0.11381
3068.78194	0.11404
3066.72235	0.11410
3064.66276	0.11392
3062.60318	0.11342
3060.54359	0.11274
3058.48401	0.11222
3056.42442	0.11206
3054.36484	0.11216
3052.30525	0.11213
3050.24567	0.11169
3048.18608	0.11111
3046.12650	0.11054
3044.06691	0.11000
3042.00733	0.10958
3039.94774	0.10893
3037.88816	0.10790
3035.82857	0.10697
3033.76899	0.10646
3031.70940	0.10605
3029.64982	0.10554
3027.59023	0.10486
3025.53065	0.10414
3023.47106	0.10370
3021.41148	0.10341
3019.35189	0.10297
3017.29231	0.10244
3015.23272	0.10203
3013.17313	0.10155
3011.11355	0.10080
3009.05396	0.10019
3006.99438	0.10007
3004.93479	0.10005
3002.87521	0.09973
3000.81562	0.09927
2998.75604	0.09907
2996.69645	0.09937
2994.63687	0.09988
2992.57728	0.10019
2990.51770	0.10033
2988.45811	0.10067
2986.39853	0.10114
2984.33894	0.10164
2982.27936	0.10230
2980.21977	0.10303
2978.16019	0.10345
2976.10060	0.10376
2974.04102	0.10445
2971.98143	0.10522
2969.92185	0.10547
2967.86226	0.10535
2965.80268	0.10534
2963.74309	0.10554
2961.68351	0.10576
2959.62392	0.10580
2957.56433	0.10585
2955.50475	0.10597
2953.44516	0.10569
2951.38558	0.10503
2949.32599	0.10468
2947.26641	0.10468
2945.20682	0.10478
2943.14724	0.10525
2941.08765	0.10607
2939.02807	0.10702
2936.96848	0.10798
2934.90890	0.10870
2932.84931	0.10936
2930.78973	0.11001
2928.73014	0.11036
2926.67056	0.11049
2924.61097	0.11054
2922.55139	0.11041
2920.49180	0.11020
2918.43222	0.11000
2916.37263	0.10943
2914.31305	0.10816
2912.25346	0.10657
2910.19388	0.10515
2908.13429	0.10385
2906.07471	0.10250
2904.01512	0.10132
2901.95553	0.10062
2899.89595	0.10013
2897.83636	0.09963
2895.77678	0.09914
2893.71719	0.09851
2891.65761	0.09804
2889.59802	0.09804
2887.53844	0.09815
2885.47885	0.09813
2883.41927	0.09818
2881.35968	0.09834
2879.30010	0.09841
2877.24051	0.09843
2875.18093	0.09859
2873.12134	0.09877
2871.06176	0.09860
2869.00217	0.09804
2866.94259	0.09741
2864.88300	0.09689
2862.82342	0.09629
2860.76383	0.09557
2858.70425	0.09517
2856.64466	0.09524
2854.58508	0.09542
2852.52549	0.09569
2850.46590	0.09608
2848.40632	0.09590
2846.34673	0.09462
2844.28715	0.09317
2842.22756	0.09221
2840.16798	0.09129
2838.10839	0.09045
2836.04881	0.08995
2833.98922	0.08958
2831.92964	0.08915
2829.87005	0.08871
2827.81047	0.08840
2825.75088	0.08816
2823.69130	0.08796
2821.63171	0.08784
2819.57213	0.08767
2817.51254	0.08734
2815.45296	0.08694
2813.39337	0.08668
2811.33379	0.08658
2809.27420	0.08656
2807.21462	0.08647
2805.15503	0.08615
2803.09545	0.08576
2801.03586	0.08561
2798.97628	0.08559
2796.91669	0.08543
2794.85710	0.08514
2792.79752	0.08500
2790.73793	0.08509
2788.67835	0.08502
2786.61876	0.08472
2784.55918	0.08437
2782.49959	0.08407
2780.44001	0.08398
2778.38042	0.08385
2776.32084	0.08360
2774.26125	0.08338
2772.20167	0.08312
2770.14208	0.08283
2768.08250	0.08253
2766.02291	0.08215
2763.96333	0.08189
2761.90374	0.08195
2759.84416	0.08203
2757.78457	0.08173
2755.72499	0.08142
2753.66540	0.08144
2751.60582	0.08157
2749.54623	0.08153
2747.48665	0.08118
2745.42706	0.08069
2743.36747	0.08045
2741.30789	0.08043
2739.24830	0.08045
2737.18872	0.08040
2735.12913	0.08027
2733.06955	0.08011
2731.00996	0.07982
2728.95038	0.07947
2726.89079	0.07925
2724.83121	0.07925
2722.77162	0.07916
2720.71204	0.07873
2718.65245	0.07824
2716.59287	0.07802
2714.53328	0.07799
2712.47370	0.07792
2710.41411	0.07768
2708.35453	0.07736
2706.29494	0.07726
2704.23536	0.07734
2702.17577	0.07722
2700.11619	0.07691
2698.05660	0.07678
2695.99702	0.07690
2693.93743	0.07686
2691.87785	0.07651
2689.81826	0.07614
2687.75867	0.07589
2685.69909	0.07567
2683.63950	0.07548
2681.57992	0.07547
2679.52033	0.07564
2677.46075	0.07570
2675.40116	0.07546
2673.34158	0.07517
2671.28199	0.07504
2669.22241	0.07490
2667.16282	0.07466
2665.10324	0.07450
2663.04365	0.07447
2660.98407	0.07457
2658.92448	0.07462
2656.86490	0.07439
2654.80531	0.07415
2652.74573	0.07408
2650.68614	0.07412
2648.62656	0.07410
2646.56697	0.07391
2644.50739	0.07368
2642.44780	0.07342
2640.38822	0.07299
2638.32863	0.07275
2636.26904	0.07293
2634.20946	0.07296
2632.14987	0.07256
2630.09029	0.07222
2628.03070	0.07226
2625.97112	0.07225
2623.91153	0.07180
2621.85195	0.07126
2619.79236	0.07095
2617.73278	0.07064
2615.67319	0.07042
2613.61361	0.07040
2611.55402	0.07017
2609.49444	0.06973
2607.43485	0.06956
2605.37527	0.06957
2603.31568	0.06940
2601.25610	0.06903
2599.19651	0.06858
2597.13693	0.06818
2595.07734	0.06815
2593.01776	0.06843
2590.95817	0.06853
2588.89859	0.06827
2586.83900	0.06785
2584.77942	0.06765
2582.71983	0.06768
2580.66024	0.06754
2578.60066	0.06706
2576.54107	0.06664
2574.48149	0.06659
2572.42190	0.06686
2570.36232	0.06724
2568.30273	0.06742
2566.24315	0.06731
2564.18356	0.06698
2562.12398	0.06640
2560.06439	0.06575
2558.00481	0.06543
2555.94522	0.06550
2553.88564	0.06554
2551.82605	0.06527
2549.76647	0.06479
2547.70688	0.06449
2545.64730	0.06467
2543.58771	0.06510
2541.52813	0.06513
2539.46854	0.06435
2537.40896	0.06358
2535.34937	0.06355
2533.28979	0.06374
2531.23020	0.06356
2529.17062	0.06314
2527.11103	0.06291
2525.05144	0.06286
2522.99186	0.06282
2520.93227	0.06284
2518.87269	0.06290
2516.81310	0.06300
2514.75352	0.06294
2512.69393	0.06275
2510.63435	0.06277
2508.57476	0.06272
2506.51518	0.06223
2504.45559	0.06181
2502.39601	0.06194
2500.33642	0.06226
2498.27684	0.06234
2496.21725	0.06228
2494.15767	0.06200
2492.09808	0.06159
2490.03850	0.06129
2487.97891	0.06100
2485.91933	0.06096
2483.85974	0.06103
2481.80016	0.06072
2479.74057	0.06041
2477.68099	0.06060
2475.62140	0.06099
2473.56181	0.06098
2471.50223	0.06042
2469.44264	0.05983
2467.38306	0.05976
2465.32347	0.06002
2463.26389	0.06024
2461.20430	0.06020
2459.14472	0.05989
2457.08513	0.05971
2455.02555	0.05982
2452.96596	0.05998
2450.90638	0.06015
2448.84679	0.06014
2446.78721	0.05975
2444.72762	0.05937
2442.66804	0.05929
2440.60845	0.05939
2438.54887	0.05938
2436.48928	0.05907
2434.42970	0.05870
2432.37011	0.05838
2430.31053	0.05819
2428.25094	0.05842
2426.19136	0.05878
2424.13177	0.05893
2422.07219	0.05918
2420.01260	0.05938
2417.95301	0.05892
2415.89343	0.05804
2413.83384	0.05758
2411.77426	0.05779
2409.71467	0.05806
2407.65509	0.05772
2405.59550	0.05708
2403.53592	0.05687
2401.47633	0.05699
2399.41675	0.05694
2397.35716	0.05710
2395.29758	0.05746
2393.23799	0.05751
2391.17841	0.05719
2389.11882	0.05699
2387.05924	0.05715
2384.99965	0.05732
2382.94007	0.05717
2380.88048	0.05679
2378.82090	0.05655
2376.76131	0.05658
2374.70173	0.05628
2372.64214	0.05524
2370.58256	0.05409
2368.52297	0.05369
2366.46338	0.05407
2364.40380	0.05444
2362.34421	0.05419
2360.28463	0.05361
2358.22504	0.05337
2356.16546	0.05359
2354.10587	0.05422
2352.04629	0.05520
2349.98670	0.05574
2347.92712	0.05542
2345.86753	0.05495
2343.80795	0.05492
2341.74836	0.05500
2339.68878	0.05508
2337.62919	0.05495
2335.56961	0.05447
2333.51002	0.05407
2331.45044	0.05407
2329.39085	0.05448
2327.33127	0.05540
2325.27168	0.05615
2323.21210	0.05579
2321.15251	0.05500
2319.09293	0.05484
2317.03334	0.05499
2314.97376	0.05478
2312.91417	0.05429
2310.85458	0.05387
2308.79500	0.05354
2306.73541	0.05324
2304.67583	0.05301
2302.61624	0.05295
2300.55666	0.05301
2298.49707	0.05293
2296.43749	0.05290
2294.37790	0.05323
2292.31832	0.05361
2290.25873	0.05353
2288.19915	0.05296
2286.13956	0.05241
2284.07998	0.05242
2282.02039	0.05246
2279.96081	0.05184
2277.90122	0.05111
2275.84164	0.05079
2273.78205	0.05047
2271.72247	0.05005
2269.66288	0.05008
2267.60330	0.05044
2265.54371	0.05044
2263.48413	0.05031
2261.42454	0.05035
2259.36495	0.04997
2257.30537	0.04890
2255.24578	0.04767
2253.18620	0.04702
2251.12661	0.04696
2249.06703	0.04687
2247.00744	0.04683
2244.94786	0.04699
2242.88827	0.04699
2240.82869	0.04676
2238.76910	0.04679
2236.70952	0.04687
2234.64993	0.04640
2232.59035	0.04623
2230.53076	0.04640
2228.47118	0.04582
2226.41159	0.04494
2224.35201	0.04468
2222.29242	0.04474
2220.23284	0.04495
2218.17325	0.04510
2216.11367	0.04484
2214.05408	0.04436
2211.99450	0.04387
2209.93491	0.04395
2207.87533	0.04445
2205.81574	0.04429
2203.75615	0.04363
2201.69657	0.04327
2199.63698	0.04322
2197.57740	0.04295
2195.51781	0.04234
2193.45823	0.04209
2191.39864	0.04242
2189.33906	0.04253
2187.27947	0.04238
2185.21989	0.04213
2183.16030	0.04103
2181.10072	0.03982
2179.04113	0.03971
2176.98155	0.03983
2174.92196	0.04008
2172.86238	0.04057
2170.80279	0.04020
2168.74321	0.03950
2166.68362	0.03924
2164.62404	0.03896
2162.56445	0.03936
2160.50487	0.03950
2158.44528	0.03696
2156.38570	0.03478
2154.32611	0.03625
2152.26652	0.03888
2150.20694	0.03947
2148.14735	0.03857
2146.08777	0.03839
2144.02818	0.03933
2141.96860	0.03997
2139.90901	0.03984
2137.84943	0.03999
2135.78984	0.04040
2133.73026	0.04045
2131.67067	0.04041
2129.61109	0.04061
2127.55150	0.04118
2125.49192	0.04163
2123.43233	0.04160
2121.37275	0.04153
2119.31316	0.04119
2117.25358	0.04063
2115.19399	0.04106
2113.13441	0.04229
2111.07482	0.04285
2109.01524	0.04264
2106.95565	0.04238
2104.89607	0.04204
2102.83648	0.04169
2100.77690	0.04169
2098.71731	0.04176
2096.65772	0.04120
2094.59814	0.04058
2092.53855	0.04043
2090.47897	0.04087
2088.41938	0.04149
2086.35980	0.04160
2084.30021	0.04121
2082.24063	0.04080
2080.18104	0.04073
2078.12146	0.04100
2076.06187	0.04117
2074.00229	0.04085
2071.94270	0.04031
2069.88312	0.04026
2067.82353	0.04010
2065.76395	0.03885
2063.70436	0.03790
2061.64478	0.03824
2059.58519	0.03851
2057.52561	0.03855
2055.46602	0.03858
2053.40644	0.03795
2051.34685	0.03644
2049.28727	0.03475
2047.22768	0.03439
2045.16810	0.03547
2043.10851	0.03614
2041.04892	0.03594
2038.98934	0.03553
2036.92975	0.03499
2034.87017	0.03463
2032.81058	0.03413
2030.75100	0.03262
2028.69141	0.03092
2026.63183	0.03085
2024.57224	0.03190
2022.51266	0.03217
2020.45307	0.03172
2018.39349	0.03192
2016.33390	0.03297
2014.27432	0.03362
2012.21473	0.03332
2010.15515	0.03314
2008.09556	0.03324
2006.03598	0.03289
2003.97639	0.03285
2001.91681	0.03375
1999.85722	0.03446
1997.79764	0.03426
1995.73805	0.03367
1993.67847	0.03368
1991.61888	0.03433
1989.55929	0.03509
1987.49971	0.03565
1985.44012	0.03528
1983.38054	0.03456
1981.32095	0.03475
1979.26137	0.03462
1977.20178	0.03318
1975.14220	0.03192
1973.08261	0.03124
1971.02303	0.03065
1968.96344	0.03084
1966.90386	0.03169
1964.84427	0.03186
1962.78469	0.03125
1960.72510	0.03060
1958.66552	0.03026
1956.60593	0.03054
1954.54635	0.03130
1952.48676	0.03152
1950.42718	0.03100
1948.36759	0.03085
1946.30801	0.03092
1944.24842	0.03052
1942.18884	0.03052
1940.12925	0.03117
1938.06967	0.03150
1936.01008	0.03139
1933.95049	0.03121
1931.89091	0.03112
1929.83132	0.03111
1927.77174	0.03115
1925.71215	0.03134
1923.65257	0.03159
1921.59298	0.03162
1919.53340	0.03156
1917.47381	0.03155
1915.41423	0.03146
1913.35464	0.03128
1911.29506	0.03091
1909.23547	0.03042
1907.17589	0.03038
1905.11630	0.03068
1903.05672	0.03078
1900.99713	0.03083
1898.93755	0.03081
1896.87796	0.03066
1894.81838	0.03072
1892.75879	0.03094
1890.69921	0.03095
1888.63962	0.03070
1886.58004	0.03037
1884.52045	0.03004
1882.46086	0.02977
1880.40128	0.02960
1878.34169	0.02944
1876.28211	0.02942
1874.22252	0.02961
1872.16294	0.02960
1870.10335	0.02927
1868.04377	0.02903
1865.98418	0.02884
1863.92460	0.02859
1861.86501	0.02846
1859.80543	0.02845
1857.74584	0.02839
1855.68626	0.02826
1853.62667	0.02801
1851.56709	0.02772
1849.50750	0.02776
1847.44792	0.02812
1845.38833	0.02821
1843.32875	0.02777
1841.26916	0.02723
1839.20958	0.02693
1837.14999	0.02683
1835.09041	0.02673
1833.03082	0.02665
1830.97124	0.02669
1828.91165	0.02679
1826.85206	0.02679
1824.79248	0.02658
1822.73289	0.02626
1820.67331	0.02593
1818.61372	0.02546
1816.55414	0.02495
1814.49455	0.02477
1812.43497	0.02498
1810.37538	0.02517
1808.31580	0.02506
1806.25621	0.02479
1804.19663	0.02454
1802.13704	0.02429
1800.07746	0.02413
1798.01787	0.02411
1795.95829	0.02417
1793.89870	0.02425
1791.83912	0.02421
1789.77953	0.02393
1787.71995	0.02363
1785.66036	0.02352
1783.60078	0.02343
1781.54119	0.02322
1779.48161	0.02291
1777.42202	0.02262
1775.36243	0.02244
1773.30285	0.02242
1771.24326	0.02236
1769.18368	0.02203
1767.12409	0.02154
1765.06451	0.02122
1763.00492	0.02111
1760.94534	0.02099
1758.88575	0.02082
1756.82617	0.02073
1754.76658	0.02073
1752.70700	0.02076
1750.64741	0.02085
1748.58783	0.02083
1746.52824	0.02056
1744.46866	0.02023
1742.40907	0.02008
1740.34949	0.02002
1738.28990	0.01991
1736.23032	0.01983
1734.17073	0.01978
1732.11115	0.01960
1730.05156	0.01929
1727.99198	0.01899
1725.93239	0.01877
1723.87281	0.01871
1721.81322	0.01895
1719.75363	0.01950
1717.69405	0.02026
1715.63446	0.02100
1713.57488	0.02177
1711.51529	0.02304
1709.45571	0.02521
1707.39612	0.02842
1705.33654	0.03249
1703.27695	0.03700
1701.21737	0.04227
1699.15778	0.04803
1697.09820	0.05282
1695.03861	0.05654
1692.97903	0.05958
1690.91944	0.06242
1688.85986	0.06545
1686.80027	0.06874
1684.74069	0.07267
1682.68110	0.07688
1680.62152	0.08055
1678.56193	0.08406
1676.50235	0.08800
1674.44276	0.09231
1672.38318	0.09662
1670.32359	0.10114
1668.26401	0.10582
1666.20442	0.10992
1664.14483	0.11379
1662.08525	0.11801
1660.02566	0.12211
1657.96608	0.12572
1655.90649	0.12937
1653.84691	0.13385
1651.78732	0.13829
1649.72774	0.14137
1647.66815	0.14437
1645.60857	0.14805
1643.54898	0.15139
1641.48940	0.15419
1639.42981	0.15705
1637.37023	0.16049
1635.31064	0.16446
1633.25106	0.16795
1631.19147	0.17069
1629.13189	0.17324
1627.07230	0.17544
1625.01272	0.17654
1622.95313	0.17616
1620.89355	0.17452
1618.83396	0.17192
1616.77438	0.16839
1614.71479	0.16445
1612.65520	0.16062
1610.59562	0.15659
1608.53603	0.15199
1606.47645	0.14678
1604.41686	0.14118
1602.35728	0.13542
1600.29769	0.12975
1598.23811	0.12440
1596.17852	0.11945
1594.11894	0.11479
1592.05935	0.11028
1589.99977	0.10579
1587.94018	0.10141
1585.88060	0.09745
1583.82101	0.09414
1581.76143	0.09150
1579.70184	0.08957
1577.64226	0.08832
1575.58267	0.08758
1573.52309	0.08726
1571.46350	0.08745
1569.40392	0.08823
1567.34433	0.08935
1565.28475	0.09069
1563.22516	0.09226
1561.16558	0.09444
1559.10599	0.09770
1557.04640	0.10095
1554.98682	0.10339
1552.92723	0.10572
1550.86765	0.10830
1548.80806	0.11091
1546.74848	0.11340
1544.68889	0.11584
1542.62931	0.11843
1540.56972	0.12124
1538.51014	0.12382
1536.45055	0.12580
1534.39097	0.12766
1532.33138	0.12957
1530.27180	0.13125
1528.21221	0.13282
1526.15263	0.13450
1524.09304	0.13630
1522.03346	0.13852
1519.97387	0.14131
1517.91429	0.14435
1515.85470	0.14694
1513.79512	0.14835
1511.73553	0.14846
1509.67595	0.14752
1507.61636	0.14542
1505.55677	0.14228
1503.49719	0.13908
1501.43760	0.13608
1499.37802	0.13272
1497.31843	0.12863
1495.25885	0.12421
1493.19926	0.12009
1491.13968	0.11601
1489.08009	0.11153
1487.02051	0.10695
1484.96092	0.10283
1482.90134	0.09936
1480.84175	0.09655
1478.78217	0.09433
1476.72258	0.09249
1474.66300	0.09091
1472.60341	0.08969
1470.54383	0.08890
1468.48424	0.08854
1466.42466	0.08866
1464.36507	0.08922
1462.30549	0.09021
1460.24590	0.09183
1458.18632	0.09448
1456.12673	0.09775
1454.06715	0.10053
1452.00756	0.10278
1449.94797	0.10494
1447.88839	0.10688
1445.82880	0.10818
1443.76922	0.10867
1441.70963	0.10850
1439.65005	0.10780
1437.59046	0.10663
1435.53088	0.10510
1433.47129	0.10347
1431.41171	0.10187
1429.35212	0.10026
1427.29254	0.09878
1425.23295	0.09763
1423.17337	0.09689
1421.11378	0.09655
1419.05420	0.09651
1416.99461	0.09658
1414.93503	0.09666
1412.87544	0.09677
1410.81586	0.09677
1408.75627	0.09651
1406.69669	0.09603
1404.63710	0.09530
1402.57752	0.09430
1400.51793	0.09313
1398.45834	0.09188
1396.39876	0.09056
1394.33917	0.08916
1392.27959	0.08784
1390.22000	0.08675
1388.16042	0.08579
1386.10083	0.08488
1384.04125	0.08398
1381.98166	0.08313
1379.92208	0.08242
1377.86249	0.08195
1375.80291	0.08168
1373.74332	0.08154
1371.68374	0.08134
1369.62415	0.08090
1367.56457	0.08013
1365.50498	0.07918
1363.44540	0.07821
1361.38581	0.07726
1359.32623	0.07644
1357.26664	0.07580
1355.20706	0.07528
1353.14747	0.07489
1351.08789	0.07467
1349.02830	0.07467
1346.96872	0.07476
1344.90913	0.07485
1342.84954	0.07501
1340.78996	0.07524
1338.73037	0.07543
1336.67079	0.07550
1334.61120	0.07550
1332.55162	0.07540
1330.49203	0.07519
1328.43245	0.07489
1326.37286	0.07451
1324.31328	0.07410
1322.25369	0.07376
1320.19411	0.07356
1318.13452	0.07349
1316.07494	0.07341
1314.01535	0.07323
1311.95577	0.07287
1309.89618	0.07237
1307.83660	0.07179
1305.77701	0.07122
1303.71743	0.07066
1301.65784	0.07012
1299.59826	0.06962
1297.53867	0.06919
1295.47909	0.06881
1293.41950	0.06845
1291.35991	0.06815
1289.30033	0.06798
1287.24074	0.06797
1285.18116	0.06805
1283.12157	0.06813
1281.06199	0.06819
1279.00240	0.06829
1276.94282	0.06847
1274.88323	0.06869
1272.82365	0.06891
1270.76406	0.06921
1268.70448	0.06966
1266.64489	0.07028
1264.58531	0.07101
1262.52572	0.07178
1260.46614	0.07252
1258.40655	0.07317
1256.34697	0.07375
1254.28738	0.07444
1252.22780	0.07538
1250.16821	0.07653
1248.10863	0.07781
1246.04904	0.07915
1243.98946	0.08051
1241.92987	0.08185
1239.87029	0.08311
1237.81070	0.08418
1235.75111	0.08500
1233.69153	0.08562
1231.63194	0.08599
1229.57236	0.08608
1227.51277	0.08598
1225.45319	0.08572
1223.39360	0.08525
1221.33402	0.08459
1219.27443	0.08374
1217.21485	0.08267
1215.15526	0.08142
1213.09568	0.08011
1211.03609	0.07886
1208.97651	0.07779
1206.91692	0.07694
1204.85734	0.07615
1202.79775	0.07523
1200.73817	0.07414
1198.67858	0.07300
1196.61900	0.07183
1194.55941	0.07066
1192.49983	0.06950
1190.44024	0.06841
1188.38066	0.06742
1186.32107	0.06649
1184.26149	0.06564
1182.20190	0.06500
1180.14231	0.06474
1178.08273	0.06485
1176.02314	0.06519
1173.96356	0.06556
1171.90397	0.06589
1169.84439	0.06609
1167.78480	0.06608
1165.72522	0.06586
1163.66563	0.06539
1161.60605	0.06471
1159.54646	0.06389
1157.48688	0.06283
1155.42729	0.06159
1153.36771	0.06039
1151.30812	0.05937
1149.24854	0.05851
1147.18895	0.05771
1145.12937	0.05694
1143.06978	0.05624
1141.01020	0.05568
1138.95061	0.05533
1136.89103	0.05508
1134.83144	0.05474
1132.77186	0.05436
1130.71227	0.05398
1128.65268	0.05355
1126.59310	0.05306
1124.53351	0.05261
1122.47393	0.05217
1120.41434	0.05168
1118.35476	0.05119
1116.29517	0.05083
1114.23559	0.05060
1112.17600	0.05035
1110.11642	0.05012
1108.05683	0.05003
1105.99725	0.05006
1103.93766	0.05001
1101.87808	0.04984
1099.81849	0.04962
1097.75891	0.04933
1095.69932	0.04894
1093.63974	0.04855
1091.58015	0.04830
1089.52057	0.04818
1087.46098	0.04817
1085.40140	0.04826
1083.34181	0.04838
1081.28223	0.04840
1079.22264	0.04833
1077.16306	0.04818
1075.10347	0.04805
1073.04388	0.04806
1070.98430	0.04809
1068.92471	0.04800
1066.86513	0.04783
1064.80554	0.04775
1062.74596	0.04781
1060.68637	0.04794
1058.62679	0.04810
1056.56720	0.04825
1054.50762	0.04841
1052.44803	0.04858
1050.38845	0.04867
1048.32886	0.04857
1046.26928	0.04823
1044.20969	0.04778
1042.15011	0.04742
1040.09052	0.04723
1038.03094	0.04708
1035.97135	0.04695
1033.91177	0.04697
1031.85218	0.04709
1029.79260	0.04718
1027.73301	0.04723
1025.67343	0.04733
1023.61384	0.04738
1021.55425	0.04724
1019.49467	0.04687
1017.43508	0.04626
1015.37550	0.04556
1013.31591	0.04493
1011.25633	0.04436
1009.19674	0.04378
1007.13716	0.04319
1005.07757	0.04269
1003.01799	0.04230
1000.95840	0.04192
998.89882	0.04145
996.83923	0.04095
994.77965	0.04052
992.72006	0.04007
990.66048	0.03954
988.60089	0.03896
986.54131	0.03844
984.48172	0.03806
982.42214	0.03776
980.36255	0.03747
978.30297	0.03724
976.24338	0.03713
974.18380	0.03719
972.12421	0.03748
970.06463	0.03810
968.00504	0.03901
965.94545	0.03989
963.88587	0.04032
961.82628	0.04009
959.76670	0.03939
957.70711	0.03849
955.64753	0.03758
953.58794	0.03682
951.52836	0.03623
949.46877	0.03567
947.40919	0.03520
945.34960	0.03485
943.29002	0.03450
941.23043	0.03414
939.17085	0.03389
937.11126	0.03375
935.05168	0.03361
932.99209	0.03342
930.93251	0.03322
928.87292	0.03314
926.81334	0.03316
924.75375	0.03317
922.69417	0.03317
920.63458	0.03307
918.57500	0.03280
916.51541	0.03248
914.45582	0.03224
912.39624	0.03198
910.33665	0.03161
908.27707	0.03125
906.21748	0.03100
904.15790	0.03080
902.09831	0.03053
900.03873	0.03023
897.97914	0.03003
895.91956	0.02982
893.85997	0.02959
891.80039	0.02940
889.74080	0.02929
887.68122	0.02923
885.62163	0.02920
883.56205	0.02924
881.50246	0.02926
879.44288	0.02916
877.38329	0.02905
875.32371	0.02907
873.26412	0.02911
871.20454	0.02895
869.14495	0.02880
867.08537	0.02883
865.02578	0.02884
862.96620	0.02866
860.90661	0.02851
858.84702	0.02859
856.78744	0.02877
854.72785	0.02886
852.66827	0.02884
850.60868	0.02881
848.54910	0.02873
846.48951	0.02863
844.42993	0.02853
842.37034	0.02845
840.31076	0.02837
838.25117	0.02823
836.19159	0.02810
834.13200	0.02808
832.07242	0.02802
830.01283	0.02794
827.95325	0.02802
825.89366	0.02814
823.83408	0.02815
821.77449	0.02804
819.71491	0.02791
817.65532	0.02785
815.59574	0.02793
813.53615	0.02810
811.47657	0.02821
809.41698	0.02822
807.35740	0.02825
805.29781	0.02838
803.23822	0.02842
801.17864	0.02832
799.11905	0.02826
797.05947	0.02822
794.99988	0.02817
792.94030	0.02816
790.88071	0.02824
788.82113	0.02840
786.76154	0.02856
784.70196	0.02879
782.64237	0.02910
780.58279	0.02940
778.52320	0.02967
776.46362	0.02980
774.40403	0.02987
772.34445	0.02997
770.28486	0.03007
768.22528	0.03014
766.16569	0.03026
764.10611	0.03040
762.04652	0.03044
759.98694	0.03043
757.92735	0.03048
755.86777	0.03060
753.80818	0.03079
751.74859	0.03095
749.68901	0.03102
747.62942	0.03110
745.56984	0.03126
743.51025	0.03142
741.45067	0.03165
739.39108	0.03204
737.33150	0.03234
735.27191	0.03242
733.21233	0.03259
731.15274	0.03293
729.09316	0.03327
727.03357	0.03368
724.97399	0.03426
722.91440	0.03486
720.85482	0.03536
718.79523	0.03583
716.73565	0.03641
714.67606	0.03711
712.61648	0.03786
710.55689	0.03855
708.49731	0.03918
706.43772	0.03975
704.37814	0.04034
702.31855	0.04097
700.25897	0.04150
698.19938	0.04175
696.13979	0.04186
694.08021	0.04210
692.02062	0.04245
689.96104	0.04274
687.90145	0.04298
685.84187	0.04311
683.78228	0.04315
681.72270	0.04329
679.66311	0.04356
677.60353	0.04377
675.54394	0.04392
673.48436	0.04413
671.42477	0.04420
669.36519	0.04405
667.30560	0.04412
665.24602	0.04431
663.18643	0.04440
661.12685	0.04437
659.06726	0.04434
657.00768	0.04448
654.94809	0.04475
652.88851	0.04490
650.82892	0.04481
648.76934	0.04474
646.70975	0.04469
644.65016	0.04458
642.59058	0.04460
640.53099	0.04484
638.47141	0.04511
636.41182	0.04521
634.35224	0.04513
632.29265	0.04514
630.23307	0.04546
628.17348	0.04595
626.11390	0.04632
624.05431	0.04643
621.99473	0.04639
619.93514	0.04647
617.87556	0.04675
615.81597	0.04692
613.75639	0.04680
611.69680	0.04652
609.63722	0.04637
607.57763	0.04653
605.51805	0.04678
603.45846	0.04687
601.39888	0.04675
599.33929	0.04653
597.27971	0.04626
595.22012	0.04605
593.16054	0.04596
591.10095	0.04598
589.04136	0.04598
586.98178	0.04585
584.92219	0.04578
582.86261	0.04596
580.80302	0.04612
578.74344	0.04604
576.68385	0.04595
574.62427	0.04610
572.56468	0.04634
570.50510	0.04650
568.44551	0.04669
566.38593	0.04696
564.32634	0.04716
562.26676	0.04723
560.20717	0.04725
558.14759	0.04727
556.08800	0.04730
554.02842	0.04740
551.96883	0.04747
549.90925	0.04750
547.84966	0.04748
545.79008	0.04729
543.73049	0.04706
541.67091	0.04690
539.61132	0.04650
537.55173	0.04589
535.49215	0.04547
533.43256	0.04528
531.37298	0.04509
529.31339	0.04476
527.25381	0.04436
525.19422	0.04398
523.13464	0.04366
521.07505	0.04341
519.01547	0.04307
516.95588	0.04259
514.89630	0.04219
512.83671	0.04181
510.77713	0.04131
508.71754	0.04096
506.65796	0.04093
504.59837	0.04082
502.53879	0.04041
500.47920	0.03999
498.41962	0.03969
496.36003	0.03937
494.30045	0.03893
492.24086	0.03853
490.18128	0.03835
488.12169	0.03814
486.06211	0.03777
484.00252	0.03739
481.94293	0.03708
479.88335	0.03689
477.82376	0.03677
475.76418	0.03655
473.70459	0.03623
471.64501	0.03576
469.58542	0.03504
467.52584	0.03453
465.46625	0.03455
463.40667	0.03465
461.34708	0.03438
459.28750	0.03400
457.22791	0.03378
455.16833	0.03364
453.10874	0.03368
451.04916	0.03399
448.98957	0.03429
446.92999	0.03437
444.87040	0.03419
442.81082	0.03386
440.75123	0.03346
438.69165	0.03302
436.63206	0.03261
434.57248	0.03219
432.51289	0.03155
430.45330	0.03080
428.39372	0.03041
426.33413	0.03042
424.27455	0.03038
422.21496	0.03015
420.15538	0.02979
418.09579	0.02939
416.03621	0.02904
413.97662	0.02857
411.91704	0.02785
409.85745	0.02730
407.79787	0.02719
405.73828	0.02706
403.67870	0.02663
401.61911	0.02623
399.55953	0.02605
