3997.65486	0.07384
3995.59527	0.07465
3993.53569	0.07507
3991.47610	0.07513
3989.41652	0.07488
3987.35693	0.07451
3985.29735	0.07453
3983.23776	0.07472
3981.17817	0.07466
3979.11859	0.07462
3977.05900	0.07491
3974.99942	0.07512
3972.93983	0.07478
3970.88025	0.07419
3968.82066	0.07379
3966.76108	0.07337
3964.70149	0.07286
3962.64191	0.07238
3960.58232	0.07204
3958.52274	0.07230
3956.46315	0.07301
3954.40357	0.07368
3952.34398	0.07426
3950.28440	0.07458
3948.22481	0.07433
3946.16523	0.07370
3944.10564	0.07323
3942.04606	0.07298
3939.98647	0.07271
3937.92689	0.07272
3935.86730	0.07310
3933.80772	0.07347
3931.74813	0.07338
3929.68855	0.07244
3927.62896	0.07110
3925.56937	0.07064
3923.50979	0.07157
3921.45020	0.07260
3919.39062	0.07262
3917.33103	0.07220
3915.27145	0.07212
3913.21186	0.07205
3911.15228	0.07166
3909.09269	0.07149
3907.03311	0.07176
3904.97352	0.07196
3902.91394	0.07193
3900.85435	0.07190
3898.79477	0.07157
3896.73518	0.07077
3894.67560	0.07008
3892.61601	0.07009
3890.55643	0.07081
3888.49684	0.07161
3886.43726	0.07202
3884.37767	0.07217
3882.31809	0.07218
3880.25850	0.07186
3878.19892	0.07117
3876.13933	0.07045
3874.07974	0.07001
3872.02016	0.06988
3869.96057	0.06957
3867.90099	0.06898
3865.84140	0.06887
3863.78182	0.06935
3861.72223	0.06972
3859.66265	0.06962
3857.60306	0.06957
3855.54348	0.06990
3853.48389	0.06965
3851.42431	0.06852
3849.36472	0.06816
3847.30514	0.06877
3845.24555	0.06921
3843.18597	0.06915
3841.12638	0.06885
3839.06680	0.06840
3837.00721	0.06836
3834.94763	0.06887
3832.88804	0.06929
3830.82846	0.06926
3828.76887	0.06896
3826.70929	0.06876
3824.64970	0.06876
3822.59012	0.06881
3820.53053	0.06873
3818.47094	0.06842
3816.41136	0.06795
3814.35177	0.06761
3812.29219	0.06745
3810.23260	0.06733
3808.17302	0.06724
3806.11343	0.06710
3804.05385	0.06674
3801.99426	0.06623
3799.93468	0.06608
3797.87509	0.06667
3795.81551	0.06745
3793.75592	0.06771
3791.69634	0.06732
3789.63675	0.06665
3787.57717	0.06621
3785.51758	0.06622
3783.45800	0.06655
3781.39841	0.06705
3779.33883	0.06726
3777.27924	0.06674
3775.21966	0.06609
3773.16007	0.06616
3771.10049	0.06662
3769.04090	0.06666
3766.98132	0.06619
3764.92173	0.06553
3762.86214	0.06499
3760.80256	0.06477
3758.74297	0.06487
3756.68339	0.06500
3754.62380	0.06476
3752.56422	0.06415
3750.50463	0.06375
3748.44505	0.06367
3746.38546	0.06354
3744.32588	0.06334
3742.26629	0.06335
3740.20671	0.06360
3738.14712	0.06383
3736.08754	0.06369
3734.02795	0.06348
3731.96837	0.06354
3729.90878	0.06347
3727.84920	0.06298
3725.78961	0.06229
3723.73003	0.06186
3721.67044	0.06198
3719.61086	0.06230
3717.55127	0.06240
3715.49169	0.06244
3713.43210	0.06249
3711.37251	0.06250
3709.31293	0.06282
3707.25334	0.06326
3705.19376	0.06342
3703.13417	0.06355
3701.07459	0.06354
3699.01500	0.06303
3696.95542	0.06222
3694.89583	0.06145
3692.83625	0.06089
3690.77666	0.06056
3688.71708	0.06072
3686.65749	0.06120
3684.59791	0.06114
3682.53832	0.06055
3680.47874	0.06034
3678.41915	0.06100
3676.35957	0.06221
3674.29998	0.06302
3672.24040	0.06286
3670.18081	0.06218
3668.12123	0.06161
3666.06164	0.06150
3664.00206	0.06161
3661.94247	0.06148
3659.88289	0.06128
3657.82330	0.06135
3655.76371	0.06151
3653.70413	0.06160
3651.64454	0.06166
3649.58496	0.06140
3647.52537	0.06078
3645.46579	0.06053
3643.40620	0.06079
3641.34662	0.06087
3639.28703	0.06072
3637.22745	0.06104
3635.16786	0.06179
3633.10828	0.06234
3631.04869	0.06266
3628.98911	0.06296
3626.92952	0.06308
3624.86994	0.06302
3622.81035	0.06285
3620.75077	0.06263
3618.69118	0.06240
3616.63160	0.06236
3614.57201	0.06275
3612.51243	0.06331
3610.45284	0.06347
3608.39326	0.06334
3606.33367	0.06349
3604.27408	0.06403
3602.21450	0.06458
3600.15491	0.06476
3598.09533	0.06468
3596.03574	0.06470
3593.97616	0.06484
3591.91657	0.06499
3589.85699	0.06537
3587.79740	0.06593
3585.73782	0.06612
3583.67823	0.06602
3581.61865	0.06631
3579.55906	0.06679
3577.49948	0.06670
3575.43989	0.06645
3573.38031	0.06677
3571.32072	0.06723
3569.26114	0.06753
3567.20155	0.06804
3565.14197	0.06851
3563.08238	0.06865
3561.02280	0.06887
3558.96321	0.06916
3556.90363	0.06919
3554.84404	0.06927
3552.78446	0.06983
3550.72487	0.07066
3548.66528	0.07119
3546.60570	0.07102
3544.54611	0.07068
3542.48653	0.07099
3540.42694	0.07156
3538.36736	0.07195
3536.30777	0.07245
3534.24819	0.07292
3532.18860	0.07295
3530.12902	0.07307
3528.06943	0.07370
3526.00985	0.07428
3523.95026	0.07478
3521.89068	0.07556
3519.83109	0.07613
3517.77151	0.07602
3515.71192	0.07573
3513.65234	0.07571
3511.59275	0.07560
3509.53317	0.07521
3507.47358	0.07527
3505.41400	0.07603
3503.35441	0.07682
3501.29483	0.07763
3499.23524	0.07841
3497.17565	0.07868
3495.11607	0.07850
3493.05648	0.07823
3490.99690	0.07810
3488.93731	0.07818
3486.87773	0.07859
3484.81814	0.07926
3482.75856	0.07989
3480.69897	0.08009
3478.63939	0.07984
3476.57980	0.07955
3474.52022	0.07962
3472.46063	0.07977
3470.40105	0.07961
3468.34146	0.07949
3466.28188	0.07965
3464.22229	0.07988
3462.16271	0.08017
3460.10312	0.08064
3458.04354	0.08129
3455.98395	0.08197
3453.92437	0.08266
3451.86478	0.08322
3449.80520	0.08340
3447.74561	0.08326
3445.68603	0.08317
3443.62644	0.08331
3441.56685	0.08348
3439.50727	0.08348
3437.44768	0.08348
3435.38810	0.08388
3433.32851	0.08472
3431.26893	0.08543
3429.20934	0.08576
3427.14976	0.08617
3425.09017	0.08687
3423.03059	0.08763
3420.97100	0.08802
3418.91142	0.08819
3416.85183	0.08867
3414.79225	0.08943
3412.73266	0.09020
3410.67308	0.09071
3408.61349	0.09061
3406.55391	0.09042
3404.49432	0.09088
3402.43474	0.09204
3400.37515	0.09349
3398.31557	0.09470
3396.25598	0.09567
3394.19640	0.09607
3392.13681	0.09602
3390.07723	0.09619
3388.01764	0.09653
3385.95805	0.09716
3383.89847	0.09820
3381.83888	0.09894
3379.77930	0.09919
3377.71971	0.09976
3375.66013	0.10100
3373.60054	0.10223
3371.54096	0.10271
3369.48137	0.10297
3367.42179	0.10397
3365.36220	0.10527
3363.30262	0.10606
3361.24303	0.10661
3359.18345	0.10753
3357.12386	0.10880
3355.06428	0.11006
3353.00469	0.11108
3350.94511	0.11201
3348.88552	0.11297
3346.82594	0.11400
3344.76635	0.11548
3342.70677	0.11756
3340.64718	0.11942
3338.58760	0.12068
3336.52801	0.12206
3334.46842	0.12384
3332.40884	0.12571
3330.34925	0.12752
3328.28967	0.12937
3326.23008	0.13140
3324.17050	0.13339
3322.11091	0.13520
3320.05133	0.13707
3317.99174	0.13893
3315.93216	0.14064
3313.87257	0.14259
3311.81299	0.14505
3309.75340	0.14779
3307.69382	0.15063
3305.63423	0.15339
3303.57465	0.15584
3301.51506	0.15803
3299.45548	0.16045
3297.39589	0.16327
3295.33631	0.16584
3293.27672	0.16805
3291.21714	0.17065
3289.15755	0.17337
3287.09797	0.17514
3285.03838	0.17614
3282.97880	0.17736
3280.91921	0.17876
3278.85962	0.17965
3276.80004	0.17992
3274.74045	0.17981
3272.68087	0.17934
3270.62128	0.17849
3268.56170	0.17736
3266.50211	0.17573
3264.44253	0.17343
3262.38294	0.17083
3260.32336	0.16841
3258.26377	0.16650
3256.20419	0.16516
3254.14460	0.16374
3252.08502	0.16155
3250.02543	0.15894
3247.96585	0.15654
3245.90626	0.15459
3243.84668	0.15304
3241.78709	0.15166
3239.72751	0.15017
3237.66792	0.14847
3235.60834	0.14698
3233.54875	0.14575
3231.48917	0.14431
3229.42958	0.14282
3227.36999	0.14154
3225.31041	0.14032
3223.25082	0.13919
3221.19124	0.13813
3219.13165	0.13692
3217.07207	0.13557
3215.01248	0.13422
3212.95290	0.13294
3210.89331	0.13173
3208.83373	0.13078
3206.77414	0.13004
3204.71456	0.12931
3202.65497	0.12840
3200.59539	0.12717
3198.53580	0.12588
3196.47622	0.12474
3194.41663	0.12363
3192.35705	0.12271
3190.29746	0.12199
3188.23788	0.12079
3186.17829	0.11893
3184.11871	0.11730
3182.05912	0.11656
3179.99954	0.11617
3177.93995	0.11524
3175.88037	0.11376
3173.82078	0.11248
3171.76119	0.11158
3169.70161	0.11070
3167.64202	0.10954
3165.58244	0.10810
3163.52285	0.10694
3161.46327	0.10639
3159.40368	0.10575
3157.34410	0.10467
3155.28451	0.10389
3153.22493	0.10354
3151.16534	0.10308
3149.10576	0.10242
3147.04617	0.10169
3144.98659	0.10082
3142.92700	0.10005
3140.86742	0.09963
3138.80783	0.09906
3136.74825	0.09809
3134.68866	0.09722
3132.62908	0.09672
3130.56949	0.09616
3128.50991	0.09539
3126.45032	0.09480
3124.39074	0.09453
3122.33115	0.09453
3120.27156	0.09452
3118.21198	0.09400
3116.15239	0.09340
3114.09281	0.09351
3112.03322	0.09402
3109.97364	0.09441
3107.91405	0.09465
3105.85447	0.09461
3103.79488	0.09441
3101.73530	0.09452
3099.67571	0.09473
3097.61613	0.09474
3095.55654	0.09474
3093.49696	0.09486
3091.43737	0.09504
3089.37779	0.09531
3087.31820	0.09582
3085.25862	0.09627
3083.19903	0.09624
3081.13945	0.09602
3079.07986	0.09613
3077.02028	0.09643
3074.96069	0.09676
3072.90111	0.09708
3070.84152	0.09720
3068.78194	0.09722
3066.72235	0.09742
3064.66276	0.09758
3062.60318	0.09728
3060.54359	0.09645
3058.48401	0.09539
3056.42442	0.09472
3054.36484	0.09445
3052.30525	0.09423
3050.24567	0.09415
3048.18608	0.09408
3046.12650	0.09367
3044.06691	0.09290
3042.00733	0.09187
3039.94774	0.09064
3037.88816	0.08960
3035.82857	0.08906
3033.76899	0.08861
3031.70940	0.08795
3029.64982	0.08737
3027.59023	0.08671
3025.53065	0.08585
3023.47106	0.08518
3021.41148	0.08465
3019.35189	0.08419
3017.29231	0.08386
3015.23272	0.08350
3013.17313	0.08317
3011.11355	0.08281
3009.05396	0.08245
3006.99438	0.08244
3004.93479	0.08256
3002.87521	0.08219
3000.81562	0.08165
2998.75604	0.08182
2996.69645	0.08262
2994.63687	0.08327
2992.57728	0.08362
2990.51770	0.08395
2988.45811	0.08445
2986.39853	0.08482
2984.33894	0.08520
2982.27936	0.08585
2980.21977	0.08648
2978.16019	0.08666
2976.10060	0.08669
2974.04102	0.08708
2971.98143	0.08758
2969.92185	0.08773
2967.86226	0.08763
2965.80268	0.08767
2963.74309	0.08801
2961.68351	0.08832
2959.62392	0.08824
2957.56433	0.08803
2955.50475	0.08796
2953.44516	0.08782
2951.38558	0.08753
2949.32599	0.08725
2947.26641	0.08730
2945.20682	0.08775
2943.14724	0.08856
2941.08765	0.08984
2939.02807	0.09161
2936.96848	0.09344
2934.90890	0.09496
2932.84931	0.09617
2930.78973	0.09700
2928.73014	0.09773
2926.67056	0.09877
2924.61097	0.09985
2922.55139	0.10064
2920.49180	0.10125
2918.43222	0.10155
2916.37263	0.10099
2914.31305	0.09899
2912.25346	0.09593
2910.19388	0.09305
2908.13429	0.09083
2906.07471	0.08894
2904.01512	0.08725
2901.95553	0.08597
2899.89595	0.08521
2897.83636	0.08462
2895.77678	0.08358
2893.71719	0.08226
2891.65761	0.08135
2889.59802	0.08084
2887.53844	0.08046
2885.47885	0.08033
2883.41927	0.08026
2881.35968	0.08003
2879.30010	0.07986
2877.24051	0.07995
2875.18093	0.08007
2873.12134	0.07993
2871.06176	0.07963
2869.00217	0.07907
2866.94259	0.07839
2864.88300	0.07826
2862.82342	0.07845
2860.76383	0.07850
2858.70425	0.07888
2856.64466	0.08000
2854.58508	0.08145
2852.52549	0.08289
2850.46590	0.08384
2848.40632	0.08330
2846.34673	0.08093
2844.28715	0.07807
2842.22756	0.07599
2840.16798	0.07447
2838.10839	0.07312
2836.04881	0.07213
2833.98922	0.07158
2831.92964	0.07126
2829.87005	0.07098
2827.81047	0.07050
2825.75088	0.06995
2823.69130	0.06963
2821.63171	0.06936
2819.57213	0.06906
2817.51254	0.06890
2815.45296	0.06882
2813.39337	0.06880
2811.33379	0.06864
2809.27420	0.06834
2807.21462	0.06810
2805.15503	0.06779
2803.09545	0.06737
2801.03586	0.06701
2798.97628	0.06685
2796.91669	0.06676
2794.85710	0.06653
2792.79752	0.06619
2790.73793	0.06591
2788.67835	0.06572
2786.61876	0.06560
2784.55918	0.06548
2782.49959	0.06532
2780.44001	0.06519
2778.38042	0.06492
2776.32084	0.06453
2774.26125	0.06427
2772.20167	0.06401
2770.14208	0.06363
2768.08250	0.06338
2766.02291	0.06330
2763.96333	0.06327
2761.90374	0.06332
2759.84416	0.06330
2757.78457	0.06298
2755.72499	0.06247
2753.66540	0.06221
2751.60582	0.06233
2749.54623	0.06232
2747.48665	0.06191
2745.42706	0.06146
2743.36747	0.06132
2741.30789	0.06132
2739.24830	0.06116
2737.18872	0.06083
2735.12913	0.06065
2733.06955	0.06070
2731.00996	0.06067
2728.95038	0.06048
2726.89079	0.06035
2724.83121	0.06025
2722.77162	0.06013
2720.71204	0.05987
2718.65245	0.05957
2716.59287	0.05944
2714.53328	0.05923
2712.47370	0.05889
2710.41411	0.05866
2708.35453	0.05836
2706.29494	0.05806
2704.23536	0.05795
2702.17577	0.05786
2700.11619	0.05778
2698.05660	0.05790
2695.99702	0.05806
2693.93743	0.05791
2691.87785	0.05756
2689.81826	0.05731
2687.75867	0.05723
2685.69909	0.05714
2683.63950	0.05701
2681.57992	0.05706
2679.52033	0.05707
2677.46075	0.05684
2675.40116	0.05672
2673.34158	0.05668
2671.28199	0.05646
2669.22241	0.05618
2667.16282	0.05609
2665.10324	0.05616
2663.04365	0.05619
2660.98407	0.05619
2658.92448	0.05618
2656.86490	0.05598
2654.80531	0.05580
2652.74573	0.05591
2650.68614	0.05608
2648.62656	0.05594
2646.56697	0.05559
2644.50739	0.05534
2642.44780	0.05526
2640.38822	0.05517
2638.32863	0.05499
2636.26904	0.05479
2634.20946	0.05443
2632.14987	0.05393
2630.09029	0.05369
2628.03070	0.05371
2625.97112	0.05383
2623.91153	0.05385
2621.85195	0.05352
2619.79236	0.05299
2617.73278	0.05280
2615.67319	0.05306
2613.61361	0.05312
2611.55402	0.05266
2609.49444	0.05233
2607.43485	0.05248
2605.37527	0.05258
2603.31568	0.05222
2601.25610	0.05165
2599.19651	0.05112
2597.13693	0.05083
2595.07734	0.05104
2593.01776	0.05140
2590.95817	0.05136
2588.89859	0.05097
2586.83900	0.05060
2584.77942	0.05048
2582.71983	0.05038
2580.66024	0.05004
2578.60066	0.04976
2576.54107	0.04967
2574.48149	0.04982
2572.42190	0.05018
2570.36232	0.05027
2568.30273	0.05000
2566.24315	0.04979
2564.18356	0.04961
2562.12398	0.04921
2560.06439	0.04867
2558.00481	0.04825
2555.94522	0.04810
2553.88564	0.04808
2551.82605	0.04794
2549.76647	0.04773
2547.70688	0.04754
2545.64730	0.04728
2543.58771	0.04728
2541.52813	0.04770
2539.46854	0.04774
2537.40896	0.04729
2535.34937	0.04708
2533.28979	0.04716
2531.23020	0.04716
2529.17062	0.04694
2527.11103	0.04678
2525.05144	0.04662
2522.99186	0.04623
2520.93227	0.04610
2518.87269	0.04644
2516.81310	0.04673
2514.75352	0.04663
2512.69393	0.04651
2510.63435	0.04657
2508.57476	0.04630
2506.51518	0.04560
2504.45559	0.04517
2502.39601	0.04539
2500.33642	0.04591
2498.27684	0.04617
2496.21725	0.04606
2494.15767	0.04567
2492.09808	0.04535
2490.03850	0.04533
2487.97891	0.04509
2485.91933	0.04465
2483.85974	0.04454
2481.80016	0.04460
2479.74057	0.04449
2477.68099	0.04434
2475.62140	0.04438
2473.56181	0.04445
2471.50223	0.04423
2469.44264	0.04388
2467.38306	0.04391
2465.32347	0.04419
2463.26389	0.04435
2461.20430	0.04420
2459.14472	0.04405
2457.08513	0.04413
2455.02555	0.04396
2452.96596	0.04365
2450.90638	0.04372
2448.84679	0.04399
2446.78721	0.04419
2444.72762	0.04405
2442.66804	0.04341
2440.60845	0.04304
2438.54887	0.04342
2436.48928	0.04368
2434.42970	0.04316
2432.37011	0.04246
2430.31053	0.04238
2428.25094	0.04266
2426.19136	0.04272
2424.13177	0.04284
2422.07219	0.04324
2420.01260	0.04324
2417.95301	0.04261
2415.89343	0.04205
2413.83384	0.04176
2411.77426	0.04165
2409.71467	0.04174
2407.65509	0.04144
2405.59550	0.04085
2403.53592	0.04079
2401.47633	0.04102
2399.41675	0.04102
2397.35716	0.04105
2395.29758	0.04110
2393.23799	0.04100
2391.17841	0.04076
2389.11882	0.04061
2387.05924	0.04060
2384.99965	0.04067
2382.94007	0.04071
2380.88048	0.04058
2378.82090	0.04039
2376.76131	0.04052
2374.70173	0.04065
2372.64214	0.04007
2370.58256	0.03892
2368.52297	0.03803
2366.46338	0.03795
2364.40380	0.03850
2362.34421	0.03883
2360.28463	0.03851
2358.22504	0.03812
2356.16546	0.03816
2354.10587	0.03877
2352.04629	0.03962
2349.98670	0.04001
2347.92712	0.03978
2345.86753	0.03939
2343.80795	0.03913
2341.74836	0.03907
2339.68878	0.03922
2337.62919	0.03921
2335.56961	0.03898
2333.51002	0.03894
2331.45044	0.03907
2329.39085	0.03933
2327.33127	0.04001
2325.27168	0.04059
2323.21210	0.04030
2321.15251	0.03966
2319.09293	0.03923
2317.03334	0.03890
2314.97376	0.03863
2312.91417	0.03861
2310.85458	0.03883
2308.79500	0.03885
2306.73541	0.03855
2304.67583	0.03831
2302.61624	0.03826
2300.55666	0.03834
2298.49707	0.03846
2296.43749	0.03846
2294.37790	0.03845
2292.31832	0.03862
2290.25873	0.03870
2288.19915	0.03839
2286.13956	0.03800
2284.07998	0.03793
2282.02039	0.03793
2279.96081	0.03751
2277.90122	0.03699
2275.84164	0.03698
2273.78205	0.03705
2271.72247	0.03650
2269.66288	0.03574
2267.60330	0.03541
2265.54371	0.03533
2263.48413	0.03510
2261.42454	0.03473
2259.36495	0.03437
2257.30537	0.03433
2255.24578	0.03444
2253.18620	0.03439
2251.12661	0.03462
2249.06703	0.03508
2247.00744	0.03530
2244.94786	0.03548
2242.88827	0.03531
2240.82869	0.03430
2238.76910	0.03340
2236.70952	0.03351
2234.64993	0.03393
2232.59035	0.03380
2230.53076	0.03330
2228.47118	0.03284
2226.41159	0.03221
2224.35201	0.03133
2222.29242	0.03089
2220.23284	0.03110
2218.17325	0.03133
2216.11367	0.03182
2214.05408	0.03292
2211.99450	0.03341
2209.93491	0.03306
2207.87533	0.03287
2205.81574	0.03295
2203.75615	0.03266
2201.69657	0.03156
2199.63698	0.03015
2197.57740	0.02926
2195.51781	0.02913
2193.45823	0.02948
2191.39864	0.02971
2189.33906	0.02923
2187.27947	0.02860
2185.21989	0.02882
2183.16030	0.02942
2181.10072	0.02986
2179.04113	0.02988
2176.98155	0.02927
2174.92196	0.02879
2172.86238	0.02913
2170.80279	0.02957
2168.74321	0.02932
2166.68362	0.02894
2164.62404	0.02922
2162.56445	0.02988
2160.50487	0.02881
2158.44528	0.02553
2156.38570	0.02376
2154.32611	0.02534
2152.26652	0.02767
2150.20694	0.02812
2148.14735	0.02757
2146.08777	0.02779
2144.02818	0.02850
2141.96860	0.02863
2139.90901	0.02836
2137.84943	0.02848
2135.78984	0.02866
2133.73026	0.02845
2131.67067	0.02822
2129.61109	0.02808
2127.55150	0.02822
2125.49192	0.02893
2123.43233	0.02962
2121.37275	0.02957
2119.31316	0.02892
2117.25358	0.02865
2115.19399	0.02943
2113.13441	0.03057
2111.07482	0.03133
2109.01524	0.03166
2106.95565	0.03144
2104.89607	0.03078
2102.83648	0.03028
2100.77690	0.03014
2098.71731	0.03020
2096.65772	0.02981
2094.59814	0.02929
2092.53855	0.02920
2090.47897	0.02969
2088.41938	0.03005
2086.35980	0.02983
2084.30021	0.02979
2082.24063	0.03037
2080.18104	0.03080
2078.12146	0.03057
2076.06187	0.03007
2074.00229	0.02956
2071.94270	0.02927
2069.88312	0.02938
2067.82353	0.02927
2065.76395	0.02865
2063.70436	0.02837
2061.64478	0.02831
2059.58519	0.02773
2057.52561	0.02735
2055.46602	0.02756
2053.40644	0.02794
2051.34685	0.02788
2049.28727	0.02663
2047.22768	0.02487
2045.16810	0.02383
2043.10851	0.02393
2041.04892	0.02513
2038.98934	0.02613
2036.92975	0.02590
2034.87017	0.02525
2032.81058	0.02494
2030.75100	0.02488
2028.69141	0.02471
2026.63183	0.02456
2024.57224	0.02433
2022.51266	0.02318
2020.45307	0.02199
2018.39349	0.02238
2016.33390	0.02382
2014.27432	0.02493
2012.21473	0.02523
2010.15515	0.02521
2008.09556	0.02494
2006.03598	0.02402
2003.97639	0.02332
2001.91681	0.02340
1999.85722	0.02385
1997.79764	0.02453
1995.73805	0.02495
1993.67847	0.02496
1991.61888	0.02457
1989.55929	0.02380
1987.49971	0.02371
1985.44012	0.02389
1983.38054	0.02352
1981.32095	0.02385
1979.26137	0.02428
1977.20178	0.02278
1975.14220	0.02081
1973.08261	0.02013
1971.02303	0.02000
1968.96344	0.02063
1966.90386	0.02197
1964.84427	0.02222
1962.78469	0.02201
1960.72510	0.02268
1958.66552	0.02304
1956.60593	0.02253
1954.54635	0.02212
1952.48676	0.02185
1950.42718	0.02160
1948.36759	0.02188
1946.30801	0.02242
1944.24842	0.02238
1942.18884	0.02213
1940.12925	0.02254
1938.06967	0.02328
1936.01008	0.02364
1933.95049	0.02346
1931.89091	0.02287
1929.83132	0.02212
1927.77174	0.02177
1925.71215	0.02201
1923.65257	0.02220
1921.59298	0.02209
1919.53340	0.02220
1917.47381	0.02254
1915.41423	0.02264
1913.35464	0.02262
1911.29506	0.02275
1909.23547	0.02277
1907.17589	0.02250
1905.11630	0.02212
1903.05672	0.02181
1900.99713	0.02171
1898.93755	0.02182
1896.87796	0.02197
1894.81838	0.02187
1892.75879	0.02171
1890.69921	0.02185
1888.63962	0.02200
1886.58004	0.02188
1884.52045	0.02162
1882.46086	0.02139
1880.40128	0.02126
1878.34169	0.02116
1876.28211	0.02109
1874.22252	0.02112
1872.16294	0.02117
1870.10335	0.02123
1868.04377	0.02127
1865.98418	0.02117
1863.92460	0.02108
1861.86501	0.02104
1859.80543	0.02090
1857.74584	0.02071
1855.68626	0.02061
1853.62667	0.02033
1851.56709	0.01990
1849.50750	0.01991
1847.44792	0.02037
1845.38833	0.02066
1843.32875	0.02045
1841.26916	0.02005
1839.20958	0.01981
1837.14999	0.01975
1835.09041	0.01962
1833.03082	0.01944
1830.97124	0.01945
1828.91165	0.01962
1826.85206	0.01974
1824.79248	0.01977
1822.73289	0.01972
1820.67331	0.01956
1818.61372	0.01919
1816.55414	0.01868
1814.49455	0.01836
1812.43497	0.01830
1810.37538	0.01843
1808.31580	0.01858
1806.25621	0.01863
1804.19663	0.01865
1802.13704	0.01869
1800.07746	0.01872
1798.01787	0.01876
1795.95829	0.01879
1793.89870	0.01872
1791.83912	0.01850
1789.77953	0.01831
1787.71995	0.01834
1785.66036	0.01845
1783.60078	0.01835
1781.54119	0.01806
1779.48161	0.01784
1777.42202	0.01778
1775.36243	0.01782
1773.30285	0.01787
1771.24326	0.01785
1769.18368	0.01771
1767.12409	0.01757
1765.06451	0.01753
1763.00492	0.01754
1760.94534	0.01757
1758.88575	0.01767
1756.82617	0.01781
1754.76658	0.01794
1752.70700	0.01818
1750.64741	0.01861
1748.58783	0.01900
1746.52824	0.01913
1744.46866	0.01911
1742.40907	0.01928
1740.34949	0.01963
1738.28990	0.01987
1736.23032	0.01989
1734.17073	0.01984
1732.11115	0.01978
1730.05156	0.01981
1727.99198	0.02000
1725.93239	0.02023
1723.87281	0.02038
1721.81322	0.02063
1719.75363	0.02127
1717.69405	0.02240
1715.63446	0.02382
1713.57488	0.02545
1711.51529	0.02772
1709.45571	0.03120
1707.39612	0.03635
1705.33654	0.04288
1703.27695	0.04932
1701.21737	0.05487
1699.15778	0.05932
1697.09820	0.06247
1695.03861	0.06511
1692.97903	0.06776
1690.91944	0.07069
1688.85986	0.07419
1686.80027	0.07829
1684.74069	0.08331
1682.68110	0.08870
1680.62152	0.09341
1678.56193	0.09789
1676.50235	0.10291
1674.44276	0.10852
1672.38318	0.11417
1670.32359	0.12019
1668.26401	0.12666
1666.20442	0.13262
1664.14483	0.13847
1662.08525	0.14492
1660.02566	0.15114
1657.96608	0.15635
1655.90649	0.16106
1653.84691	0.16621
1651.78732	0.17089
1649.72774	0.17356
1647.66815	0.17531
1645.60857	0.17704
1643.54898	0.17827
1641.48940	0.17909
1639.42981	0.18005
1637.37023	0.18171
1635.31064	0.18440
1633.25106	0.18748
1631.19147	0.19043
1629.13189	0.19352
1627.07230	0.19638
1625.01272	0.19777
1622.95313	0.19669
1620.89355	0.19283
1618.83396	0.18618
1616.77438	0.17673
1614.71479	0.16609
1612.65520	0.15592
1610.59562	0.14558
1608.53603	0.13461
1606.47645	0.12380
1604.41686	0.11402
1602.35728	0.10569
1600.29769	0.09892
1598.23811	0.09360
1596.17852	0.08927
1594.11894	0.08539
1592.05935	0.08172
1589.99977	0.07827
1587.94018	0.07535
1585.88060	0.07327
1583.82101	0.07208
1581.76143	0.07161
1579.70184	0.07177
1577.64226	0.07267
1575.58267	0.07419
1573.52309	0.07587
1571.46350	0.07792
1569.40392	0.08086
1567.34433	0.08434
1565.28475	0.08789
1563.22516	0.09148
1561.16558	0.09584
1559.10599	0.10206
1557.04640	0.10869
1554.98682	0.11399
1552.92723	0.11889
1550.86765	0.12396
1548.80806	0.12888
1546.74848	0.13337
1544.68889	0.13769
1542.62931	0.14224
1540.56972	0.14708
1538.51014	0.15132
1536.45055	0.15415
1534.39097	0.15655
1532.33138	0.15912
1530.27180	0.16154
1528.21221	0.16393
1526.15263	0.16654
1524.09304	0.16927
1522.03346	0.17250
1519.97387	0.17649
1517.91429	0.18061
1515.85470	0.18387
1513.79512	0.18500
1511.73553	0.18371
1509.67595	0.18052
1507.61636	0.17544
1505.55677	0.16876
1503.49719	0.16214
1501.43760	0.15587
1499.37802	0.14906
1497.31843	0.14140
1495.25885	0.13372
1493.19926	0.12688
1491.13968	0.12038
1489.08009	0.11364
1487.02051	0.10726
1484.96092	0.10179
1482.90134	0.09712
1480.84175	0.09317
1478.78217	0.09003
1476.72258	0.08761
1474.66300	0.08577
1472.60341	0.08446
1470.54383	0.08352
1468.48424	0.08288
1466.42466	0.08263
1464.36507	0.08287
1462.30549	0.08358
1460.24590	0.08488
1458.18632	0.08709
1456.12673	0.08994
1454.06715	0.09239
1452.00756	0.09431
1449.94797	0.09595
1447.88839	0.09697
1445.82880	0.09690
1443.76922	0.09580
1441.70963	0.09407
1439.65005	0.09202
1437.59046	0.08953
1435.53088	0.08661
1433.47129	0.08381
1431.41171	0.08146
1429.35212	0.07955
1427.29254	0.07818
1425.23295	0.07744
1423.17337	0.07726
1421.11378	0.07747
1419.05420	0.07795
1416.99461	0.07861
1414.93503	0.07924
1412.87544	0.07964
1410.81586	0.07972
1408.75627	0.07950
1406.69669	0.07898
1404.63710	0.07814
1402.57752	0.07713
1400.51793	0.07611
1398.45834	0.07519
1396.39876	0.07445
1394.33917	0.07399
1392.27959	0.07386
1390.22000	0.07405
1388.16042	0.07441
1386.10083	0.07483
1384.04125	0.07520
1381.98166	0.07548
1379.92208	0.07562
1377.86249	0.07564
1375.80291	0.07560
1373.74332	0.07547
1371.68374	0.07515
1369.62415	0.07456
1367.56457	0.07360
1365.50498	0.07223
1363.44540	0.07051
1361.38581	0.06870
1359.32623	0.06720
1357.26664	0.06611
1355.20706	0.06531
1353.14747	0.06475
1351.08789	0.06448
1349.02830	0.06454
1346.96872	0.06485
1344.90913	0.06526
1342.84954	0.06571
1340.78996	0.06620
1338.73037	0.06672
1336.67079	0.06715
1334.61120	0.06734
1332.55162	0.06716
1330.49203	0.06663
1328.43245	0.06588
1326.37286	0.06501
1324.31328	0.06412
1322.25369	0.06330
1320.19411	0.06263
1318.13452	0.06214
1316.07494	0.06184
1314.01535	0.06181
1311.95577	0.06195
1309.89618	0.06202
1307.83660	0.06200
1305.77701	0.06198
1303.71743	0.06193
1301.65784	0.06181
1299.59826	0.06169
1297.53867	0.06158
1295.47909	0.06149
1293.41950	0.06142
1291.35991	0.06140
1289.30033	0.06142
1287.24074	0.06154
1285.18116	0.06175
1283.12157	0.06203
1281.06199	0.06248
1279.00240	0.06316
1276.94282	0.06411
1274.88323	0.06537
1272.82365	0.06676
1270.76406	0.06817
1268.70448	0.06958
1266.64489	0.07091
1264.58531	0.07200
1262.52572	0.07280
1260.46614	0.07341
1258.40655	0.07393
1256.34697	0.07444
1254.28738	0.07501
1252.22780	0.07572
1250.16821	0.07666
1248.10863	0.07790
1246.04904	0.07932
1243.98946	0.08081
1241.92987	0.08225
1239.87029	0.08355
1237.81070	0.08474
1235.75111	0.08585
1233.69153	0.08683
1231.63194	0.08747
1229.57236	0.08763
1227.51277	0.08733
1225.45319	0.08650
1223.39360	0.08509
1221.33402	0.08324
1219.27443	0.08107
1217.21485	0.07854
1215.15526	0.07570
1213.09568	0.07273
1211.03609	0.06982
1208.97651	0.06702
1206.91692	0.06435
1204.85734	0.06179
1202.79775	0.05938
1200.73817	0.05720
1198.67858	0.05538
1196.61900	0.05389
1194.55941	0.05270
1192.49983	0.05182
1190.44024	0.05119
1188.38066	0.05074
1186.32107	0.05050
1184.26149	0.05050
1182.20190	0.05091
1180.14231	0.05182
1178.08273	0.05312
1176.02314	0.05456
1173.96356	0.05597
1171.90397	0.05714
1169.84439	0.05776
1167.78480	0.05770
1165.72522	0.05715
1163.66563	0.05638
1161.60605	0.05554
1159.54646	0.05457
1157.48688	0.05332
1155.42729	0.05185
1153.36771	0.05043
1151.30812	0.04917
1149.24854	0.04797
1147.18895	0.04690
1145.12937	0.04595
1143.06978	0.04502
1141.01020	0.04425
1138.95061	0.04376
1136.89103	0.04343
1134.83144	0.04315
1132.77186	0.04295
1130.71227	0.04276
1128.65268	0.04258
1126.59310	0.04253
1124.53351	0.04257
1122.47393	0.04250
1120.41434	0.04239
1118.35476	0.04241
1116.29517	0.04243
1114.23559	0.04240
1112.17600	0.04244
1110.11642	0.04259
1108.05683	0.04282
1105.99725	0.04311
1103.93766	0.04321
1101.87808	0.04285
1099.81849	0.04224
1097.75891	0.04171
1095.69932	0.04131
1093.63974	0.04099
1091.58015	0.04075
1089.52057	0.04069
1087.46098	0.04086
1085.40140	0.04120
1083.34181	0.04153
1081.28223	0.04175
1079.22264	0.04194
1077.16306	0.04217
1075.10347	0.04242
1073.04388	0.04261
1070.98430	0.04274
1068.92471	0.04290
1066.86513	0.04308
1064.80554	0.04330
1062.74596	0.04366
1060.68637	0.04413
1058.62679	0.04441
1056.56720	0.04428
1054.50762	0.04386
1052.44803	0.04341
1050.38845	0.04293
1048.32886	0.04239
1046.26928	0.04180
1044.20969	0.04119
1042.15011	0.04065
1040.09052	0.04021
1038.03094	0.03989
1035.97135	0.03977
1033.91177	0.03984
1031.85218	0.04002
1029.79260	0.04018
1027.73301	0.04026
1025.67343	0.04021
1023.61384	0.04016
1021.55425	0.04026
1019.49467	0.04058
1017.43508	0.04100
1015.37550	0.04128
1013.31591	0.04123
1011.25633	0.04082
1009.19674	0.04021
1007.13716	0.03961
1005.07757	0.03914
1003.01799	0.03880
1000.95840	0.03840
998.89882	0.03778
996.83923	0.03694
994.77965	0.03590
992.72006	0.03483
990.66048	0.03389
988.60089	0.03308
986.54131	0.03248
984.48172	0.03221
982.42214	0.03218
980.36255	0.03228
978.30297	0.03240
976.24338	0.03240
974.18380	0.03228
972.12421	0.03217
970.06463	0.03212
968.00504	0.03209
965.94545	0.03192
963.88587	0.03158
961.82628	0.03116
959.76670	0.03067
957.70711	0.03011
955.64753	0.02955
953.58794	0.02907
951.52836	0.02865
949.46877	0.02826
947.40919	0.02804
945.34960	0.02800
943.29002	0.02793
941.23043	0.02772
939.17085	0.02751
937.11126	0.02735
935.05168	0.02717
932.99209	0.02696
930.93251	0.02671
928.87292	0.02647
926.81334	0.02626
924.75375	0.02600
922.69417	0.02564
920.63458	0.02519
918.57500	0.02466
916.51541	0.02411
914.45582	0.02376
912.39624	0.02352
910.33665	0.02323
908.27707	0.02299
906.21748	0.02288
904.15790	0.02279
902.09831	0.02266
900.03873	0.02256
897.97914	0.02255
895.91956	0.02253
893.85997	0.02242
891.80039	0.02228
889.74080	0.02216
887.68122	0.02200
885.62163	0.02183
883.56205	0.02173
881.50246	0.02165
879.44288	0.02146
877.38329	0.02128
875.32371	0.02126
873.26412	0.02125
871.20454	0.02099
869.14495	0.02068
867.08537	0.02063
865.02578	0.02076
862.96620	0.02080
860.90661	0.02085
858.84702	0.02120
856.78744	0.02172
854.72785	0.02211
852.66827	0.02238
850.60868	0.02256
848.54910	0.02266
846.48951	0.02263
844.42993	0.02244
842.37034	0.02235
840.31076	0.02258
838.25117	0.02294
836.19159	0.02314
834.13200	0.02335
832.07242	0.02363
830.01283	0.02380
827.95325	0.02382
825.89366	0.02370
823.83408	0.02344
821.77449	0.02312
819.71491	0.02286
817.65532	0.02274
815.59574	0.02278
813.53615	0.02287
811.47657	0.02297
809.41698	0.02308
807.35740	0.02320
805.29781	0.02322
803.23822	0.02316
801.17864	0.02320
799.11905	0.02350
797.05947	0.02387
794.99988	0.02397
792.94030	0.02383
790.88071	0.02390
788.82113	0.02419
786.76154	0.02449
784.70196	0.02481
782.64237	0.02517
780.58279	0.02553
778.52320	0.02595
776.46362	0.02634
774.40403	0.02660
772.34445	0.02676
770.28486	0.02694
768.22528	0.02718
766.16569	0.02747
764.10611	0.02782
762.04652	0.02808
759.98694	0.02817
757.92735	0.02827
755.86777	0.02850
753.80818	0.02879
751.74859	0.02907
749.68901	0.02937
747.62942	0.02975
745.56984	0.03022
743.51025	0.03076
741.45067	0.03138
739.39108	0.03208
737.33150	0.03287
735.27191	0.03362
733.21233	0.03434
731.15274	0.03515
729.09316	0.03593
727.03357	0.03666
724.97399	0.03752
722.91440	0.03847
720.85482	0.03933
718.79523	0.04001
716.73565	0.04052
714.67606	0.04106
712.61648	0.04173
710.55689	0.04249
708.49731	0.04325
706.43772	0.04391
704.37814	0.04448
702.31855	0.04502
700.25897	0.04545
698.19938	0.04569
696.13979	0.04584
694.08021	0.04600
692.02062	0.04616
689.96104	0.04628
687.90145	0.04643
685.84187	0.04649
683.78228	0.04634
681.72270	0.04619
679.66311	0.04624
677.60353	0.04639
675.54394	0.04661
673.48436	0.04677
671.42477	0.04674
669.36519	0.04658
667.30560	0.04653
665.24602	0.04663
663.18643	0.04669
661.12685	0.04668
659.06726	0.04666
657.00768	0.04664
654.94809	0.04665
652.88851	0.04661
650.82892	0.04653
648.76934	0.04660
646.70975	0.04671
644.65016	0.04665
642.59058	0.04653
640.53099	0.04653
638.47141	0.04658
636.41182	0.04661
634.35224	0.04671
632.29265	0.04682
630.23307	0.04691
628.17348	0.04709
626.11390	0.04728
624.05431	0.04733
621.99473	0.04740
619.93514	0.04767
617.87556	0.04794
615.81597	0.04801
613.75639	0.04793
611.69680	0.04755
609.63722	0.04699
607.57763	0.04663
605.51805	0.04632
603.45846	0.04582
601.39888	0.04527
599.33929	0.04482
597.27971	0.04449
595.22012	0.04431
593.16054	0.04424
591.10095	0.04420
589.04136	0.04412
586.98178	0.04410
584.92219	0.04429
582.86261	0.04453
580.80302	0.04462
578.74344	0.04462
576.68385	0.04471
574.62427	0.04488
572.56468	0.04502
570.50510	0.04522
568.44551	0.04556
566.38593	0.04587
564.32634	0.04615
562.26676	0.04639
560.20717	0.04667
558.14759	0.04712
556.08800	0.04759
554.02842	0.04783
551.96883	0.04788
549.90925	0.04804
547.84966	0.04827
545.79008	0.04808
543.73049	0.04748
541.67091	0.04689
539.61132	0.04635
537.55173	0.04585
535.49215	0.04557
533.43256	0.04546
531.37298	0.04520
529.31339	0.04481
527.25381	0.04445
525.19422	0.04410
523.13464	0.04380
521.07505	0.04355
519.01547	0.04313
516.95588	0.04253
514.89630	0.04196
512.83671	0.04146
510.77713	0.04099
508.71754	0.04054
506.65796	0.04008
504.59837	0.03963
502.53879	0.03937
500.47920	0.03929
498.41962	0.03916
496.36003	0.03878
494.30045	0.03824
492.24086	0.03789
490.18128	0.03787
488.12169	0.03780
486.06211	0.03740
484.00252	0.03679
481.94293	0.03622
479.88335	0.03578
477.82376	0.03544
475.76418	0.03515
473.70459	0.03498
471.64501	0.03466
469.58542	0.03393
467.52584	0.03336
465.46625	0.03327
463.40667	0.03329
461.34708	0.03300
459.28750	0.03251
457.22791	0.03226
455.16833	0.03222
453.10874	0.03198
451.04916	0.03160
448.98957	0.03137
446.92999	0.03125
444.87040	0.03109
442.81082	0.03099
440.75123	0.03105
438.69165	0.03117
436.63206	0.03119
434.57248	0.03105
432.51289	0.03069
430.45330	0.03020
428.39372	0.02989
426.33413	0.03000
424.27455	0.03026
422.21496	0.03019
420.15538	0.02970
418.09579	0.02912
416.03621	0.02880
413.97662	0.02848
411.91704	0.02784
409.85745	0.02721
407.79787	0.02691
405.73828	0.02668
403.67870	0.02629
401.61911	0.02596
399.55953	0.02573
