2996.73039,0.15871
2994.67079,0.15558
2992.61118,0.15275
2990.55157,0.15023
2988.49196,0.14769
2986.43235,0.14482
2984.37274,0.14202
2982.31313,0.13969
2980.25353,0.13776
2978.19392,0.13590
2976.13431,0.13378
2974.07470,0.13163
2972.01509,0.12990
2969.95548,0.12856
2967.89587,0.12729
2965.83627,0.12578
2963.77666,0.12377
2961.71705,0.12134
2959.65744,0.11899
2957.59783,0.11690
2955.53822,0.11491
2953.47861,0.11288
2951.41901,0.11064
2949.35940,0.10828
2947.29979,0.10611
2945.24018,0.10423
2943.18057,0.10279
2941.12096,0.10192
2939.06136,0.10142
2937.00175,0.10094
2934.94214,0.10027
2932.88253,0.09953
2930.82292,0.09889
2928.76331,0.09814
2926.70370,0.09697
2924.64410,0.09508
2922.58449,0.09266
2920.52488,0.09038
2918.46527,0.08825
2916.40566,0.08569
2914.34605,0.08263
2912.28644,0.07940
2910.22684,0.07618
2908.16723,0.07343
2906.10762,0.07137
2904.04801,0.06968
2901.98840,0.06820
2899.92879,0.06676
2897.86918,0.06533
2895.80958,0.06398
2893.74997,0.06271
2891.69036,0.06136
2889.63075,0.05982
2887.57114,0.05838
2885.51153,0.05733
2883.45193,0.05660
2881.39232,0.05596
2879.33271,0.05529
2877.27310,0.05475
2875.21349,0.05435
2873.15388,0.05384
2871.09427,0.05293
2869.03467,0.05166
2866.97506,0.05039
2864.91545,0.04940
2862.85584,0.04882
2860.79623,0.04854
2858.73662,0.04836
2856.67701,0.04826
2854.61741,0.04795
2852.55780,0.04694
2850.49819,0.04546
2848.43858,0.04407
2846.37897,0.04241
2844.31936,0.04038
2842.25975,0.03877
2840.20015,0.03774
2838.14054,0.03694
2836.08093,0.03629
2834.02132,0.03563
2831.96171,0.03480
2829.90210,0.03401
2827.84250,0.03346
2825.78289,0.03296
2823.72328,0.03233
2821.66367,0.03174
2819.60406,0.03124
2817.54445,0.03070
2815.48484,0.03019
2813.42524,0.02991
2811.36563,0.02965
2809.30602,0.02910
2807.24641,0.02855
2805.18680,0.02820
2803.12719,0.02793
2801.06758,0.02775
2799.00798,0.02741
2796.94837,0.02681
2794.88876,0.02618
2792.82915,0.02565
2790.76954,0.02528
2788.70993,0.02509
2786.65032,0.02498
2784.59072,0.02475
2782.53111,0.02428
2780.47150,0.02369
2778.41189,0.02318
2776.35228,0.02296
2774.29267,0.02296
2772.23307,0.02268
2770.17346,0.02197
2768.11385,0.02125
2766.05424,0.02091
2763.99463,0.02090
2761.93502,0.02074
2759.87541,0.02061
2757.81581,0.02053
2755.75620,0.02016
2753.69659,0.01976
2751.63698,0.01960
2749.57737,0.01952
2747.51776,0.01929
2745.45815,0.01898
2743.39855,0.01877
2741.33894,0.01850
2739.27933,0.01820
2737.21972,0.01812
2735.16011,0.01807
2733.10050,0.01781
2731.04089,0.01758
2728.98129,0.01739
2726.92168,0.01705
2724.86207,0.01680
2722.80246,0.01678
2720.74285,0.01677
2718.68324,0.01654
2716.62364,0.01625
2714.56403,0.01605
2712.50442,0.01586
2710.44481,0.01575
2708.38520,0.01591
2706.32559,0.01608
2704.26598,0.01592
2702.20638,0.01564
2700.14677,0.01541
2698.08716,0.01515
2696.02755,0.01497
2693.96794,0.01516
2691.90833,0.01545
2689.84872,0.01525
2687.78912,0.01475
2685.72951,0.01440
2683.66990,0.01437
2681.61029,0.01453
2679.55068,0.01464
2677.49107,0.01454
2675.43146,0.01426
2673.37186,0.01420
2671.31225,0.01450
2669.25264,0.01457
2667.19303,0.01432
2665.13342,0.01417
2663.07381,0.01402
2661.01421,0.01377
2658.95460,0.01395
2656.89499,0.01441
2654.83538,0.01460
2652.77577,0.01446
2650.71616,0.01401
2648.65655,0.01347
2646.59695,0.01338
2644.53734,0.01367
2642.47773,0.01376
2640.41812,0.01372
2638.35851,0.01372
2636.29890,0.01373
2634.23929,0.01377
2632.17969,0.01377
2630.12008,0.01381
2628.06047,0.01396
2626.00086,0.01395
2623.94125,0.01367
2621.88164,0.01350
2619.82203,0.01374
2617.76243,0.01417
2615.70282,0.01434
2613.64321,0.01425
2611.58360,0.01417
2609.52399,0.01408
2607.46438,0.01389
2605.40478,0.01394
2603.34517,0.01439
2601.28556,0.01470
2599.22595,0.01444
2597.16634,0.01421
2595.10673,0.01443
2593.04712,0.01461
2590.98752,0.01449
2588.92791,0.01432
2586.86830,0.01422
2584.80869,0.01415
2582.74908,0.01413
2580.68947,0.01423
2578.62986,0.01429
2576.57026,0.01434
2574.51065,0.01462
2572.45104,0.01511
2570.39143,0.01553
2568.33182,0.01567
2566.27221,0.01560
2564.21260,0.01561
2562.15300,0.01574
2560.09339,0.01593
2558.03378,0.01602
2555.97417,0.01596
2553.91456,0.01611
2551.85495,0.01652
2549.79535,0.01682
2547.73574,0.01700
2545.67613,0.01722
2543.61652,0.01741
2541.55691,0.01735
2539.49730,0.01703
2537.43769,0.01688
2535.37809,0.01699
2533.31848,0.01686
2531.25887,0.01670
2529.19926,0.01711
2527.13965,0.01782
2525.08004,0.01845
2523.02043,0.01868
2520.96083,0.01841
2518.90122,0.01828
2516.84161,0.01851
2514.78200,0.01851
2512.72239,0.01831
2510.66278,0.01844
2508.60317,0.01864
2506.54357,0.01861
2504.48396,0.01858
2502.42435,0.01874
2500.36474,0.01886
2498.30513,0.01858
2496.24552,0.01840
2494.18592,0.01884
2492.12631,0.01933
2490.06670,0.01942
2488.00709,0.01916
2485.94748,0.01882
2483.88787,0.01871
2481.82826,0.01869
2479.76866,0.01880
2477.70905,0.01899
2475.64944,0.01899
2473.58983,0.01912
2471.53022,0.01972
2469.47061,0.02023
2467.41100,0.02001
2465.35140,0.01947
2463.29179,0.01925
2461.23218,0.01927
2459.17257,0.01906
2457.11296,0.01879
2455.05335,0.01891
2452.99374,0.01921
2450.93414,0.01946
2448.87453,0.01966
2446.81492,0.01975
2444.75531,0.01973
2442.69570,0.01978
2440.63609,0.01980
2438.57649,0.01971
2436.51688,0.01968
2434.45727,0.01957
2432.39766,0.01929
2430.33805,0.01917
2428.27844,0.01934
2426.21883,0.01959
2424.15923,0.01962
2422.09962,0.01950
2420.04001,0.01964
2417.98040,0.02023
2415.92079,0.02096
2413.86118,0.02128
2411.80157,0.02101
2409.74197,0.02075
2407.68236,0.02072
2405.62275,0.02062
2403.56314,0.02058
2401.50353,0.02064
2399.44392,0.02071
2397.38431,0.02104
2395.32471,0.02144
2393.26510,0.02156
2391.20549,0.02144
2389.14588,0.02133
2387.08627,0.02133
2385.02666,0.02136
2382.96706,0.02141
2380.90745,0.02158
2378.84784,0.02175
2376.78823,0.02181
2374.72862,0.02194
2372.66901,0.02213
2370.60940,0.02203
2368.54980,0.02193
2366.49019,0.02250
2364.43058,0.02329
2362.37097,0.02350
2360.31136,0.02348
2358.25175,0.02375
2356.19214,0.02398
2354.13254,0.02404
2352.07293,0.02419
2350.01332,0.02431
2347.95371,0.02431
2345.89410,0.02412
2343.83449,0.02377
2341.77488,0.02354
2339.71528,0.02355
2337.65567,0.02392
2335.59606,0.02444
2333.53645,0.02485
2331.47684,0.02541
2329.41723,0.02587
2327.35763,0.02556
2325.29802,0.02499
2323.23841,0.02499
2321.17880,0.02517
2319.11919,0.02493
2317.05958,0.02494
2314.99997,0.02529
2312.94037,0.02524
2310.88076,0.02530
2308.82115,0.02593
2306.76154,0.02636
2304.70193,0.02628
2302.64232,0.02633
2300.58271,0.02653
2298.52311,0.02648
2296.46350,0.02666
2294.40389,0.02718
2292.34428,0.02725
2290.28467,0.02707
2288.22506,0.02718
2286.16545,0.02713
2284.10585,0.02704
2282.04624,0.02731
2279.98663,0.02737
2277.92702,0.02726
2275.86741,0.02751
2273.80780,0.02789
2271.74820,0.02772
2269.68859,0.02699
2267.62898,0.02642
2265.56937,0.02647
2263.50976,0.02720
2261.45015,0.02807
2259.39054,0.02841
2257.33094,0.02828
2255.27133,0.02828
2253.21172,0.02879
2251.15211,0.02917
2249.09250,0.02866
2247.03289,0.02811
2244.97328,0.02851
2242.91368,0.02900
2240.85407,0.02899
2238.79446,0.02897
2236.73485,0.02879
2234.67524,0.02869
2232.61563,0.02918
2230.55602,0.02982
2228.49642,0.03024
2226.43681,0.03023
2224.37720,0.03000
2222.31759,0.02988
2220.25798,0.02974
2218.19837,0.02962
2216.13877,0.02986
2214.07916,0.03024
2212.01955,0.03049
2209.95994,0.03060
2207.90033,0.03081
2205.84072,0.03115
2203.78111,0.03108
2201.72151,0.03098
2199.66190,0.03122
2197.60229,0.03135
2195.54268,0.03126
2193.48307,0.03143
2191.42346,0.03194
2189.36385,0.03223
2187.30425,0.03215
2185.24464,0.03195
2183.18503,0.03135
2181.12542,0.03011
2179.06581,0.02914
2177.00620,0.02880
2174.94659,0.02896
2172.88699,0.02976
2170.82738,0.03083
2168.76777,0.03177
2166.70816,0.03215
2164.64855,0.03159
2162.58894,0.03012
2160.52934,0.02906
2158.46973,0.02863
2156.41012,0.02796
2154.35051,0.02753
2152.29090,0.02784
2150.23129,0.02923
2148.17168,0.03136
2146.11208,0.03335
2144.05247,0.03494
2141.99286,0.03542
2139.93325,0.03481
2137.87364,0.03463
2135.81403,0.03497
2133.75442,0.03501
2131.69482,0.03482
2129.63521,0.03475
2127.57560,0.03493
2125.51599,0.03540
2123.45638,0.03615
2121.39677,0.03684
2119.33716,0.03699
2117.27756,0.03669
2115.21795,0.03661
2113.15834,0.03676
2111.09873,0.03694
2109.03912,0.03712
2106.97951,0.03694
2104.91991,0.03658
2102.86030,0.03653
2100.80069,0.03648
2098.74108,0.03624
2096.68147,0.03594
2094.62186,0.03588
2092.56225,0.03628
2090.50265,0.03664
2088.44304,0.03646
2086.38343,0.03572
2084.32382,0.03512
2082.26421,0.03484
2080.20460,0.03434
2078.14499,0.03423
2076.08539,0.03473
2074.02578,0.03495
2071.96617,0.03500
2069.90656,0.03489
2067.84695,0.03408
2065.78734,0.03311
2063.72773,0.03267
2061.66813,0.03255
2059.60852,0.03247
2057.54891,0.03224
2055.48930,0.03191
2053.42969,0.03186
2051.37008,0.03159
2049.31048,0.03038
2047.25087,0.02889
2045.19126,0.02812
2043.13165,0.02796
2041.07204,0.02780
2039.01243,0.02707
2036.95282,0.02622
2034.89322,0.02613
2032.83361,0.02658
2030.77400,0.02650
2028.71439,0.02563
2026.65478,0.02567
2024.59517,0.02705
2022.53556,0.02720
2020.47596,0.02574
2018.41635,0.02550
2016.35674,0.02590
2014.29713,0.02455
2012.23752,0.02316
2010.17791,0.02300
2008.11830,0.02302
2006.05870,0.02326
2003.99909,0.02362
2001.93948,0.02361
1999.87987,0.02346
1997.82026,0.02311
1995.76065,0.02260
1993.70105,0.02237
1991.64144,0.02217
1989.58183,0.02191
1987.52222,0.02213
1985.46261,0.02238
1983.40300,0.02220
1981.34339,0.02154
1979.28379,0.02046
1977.22418,0.01989
1975.16457,0.02006
1973.10496,0.02047
1971.04535,0.02092
1968.98574,0.02126
1966.92613,0.02084
1964.86653,0.02022
1962.80692,0.02042
1960.74731,0.02058
1958.68770,0.02063
1956.62809,0.02095
1954.56848,0.02108
1952.50887,0.02126
1950.44927,0.02143
1948.38966,0.02120
1946.33005,0.02099
1944.27044,0.02100
1942.21083,0.02109
1940.15122,0.02102
1938.09162,0.02088
1936.03201,0.02098
1933.97240,0.02111
1931.91279,0.02095
1929.85318,0.02076
1927.79357,0.02094
1925.73396,0.02113
1923.67436,0.02092
1921.61475,0.02076
1919.55514,0.02089
1917.49553,0.02076
1915.43592,0.02067
1913.37631,0.02099
1911.31670,0.02106
1909.25710,0.02089
1907.19749,0.02099
1905.13788,0.02114
1903.07827,0.02107
1901.01866,0.02111
1898.95905,0.02131
1896.89944,0.02108
1894.83984,0.02063
1892.78023,0.02062
1890.72062,0.02075
1888.66101,0.02072
1886.60140,0.02086
1884.54179,0.02109
1882.48219,0.02103
1880.42258,0.02078
1878.36297,0.02061
1876.30336,0.02063
1874.24375,0.02070
1872.18414,0.02044
1870.12453,0.02014
1868.06493,0.02028
1866.00532,0.02051
1863.94571,0.02064
1861.88610,0.02084
1859.82649,0.02100
1857.76688,0.02115
1855.70727,0.02142
1853.64767,0.02160
1851.58806,0.02171
1849.52845,0.02201
1847.46884,0.02226
1845.40923,0.02220
1843.34962,0.02192
1841.29002,0.02188
1839.23041,0.02211
1837.17080,0.02233
1835.11119,0.02248
1833.05158,0.02263
1830.99197,0.02269
1828.93236,0.02270
1826.87276,0.02278
1824.81315,0.02289
1822.75354,0.02321
1820.69393,0.02341
1818.63432,0.02337
1816.57471,0.02350
1814.51510,0.02390
1812.45550,0.02452
1810.39589,0.02509
1808.33628,0.02525
1806.27667,0.02525
1804.21706,0.02541
1802.15745,0.02563
1800.09784,0.02583
1798.03824,0.02607
1795.97863,0.02646
1793.91902,0.02702
1791.85941,0.02751
1789.79980,0.02769
1787.74019,0.02785
1785.68059,0.02816
1783.62098,0.02859
1781.56137,0.02904
1779.50176,0.02951
1777.44215,0.02998
1775.38254,0.03029
1773.32293,0.03075
1771.26333,0.03157
1769.20372,0.03223
1767.14411,0.03270
1765.08450,0.03329
1763.02489,0.03400
1760.96528,0.03481
1758.90567,0.03562
1756.84607,0.03655
1754.78646,0.03745
1752.72685,0.03814
1750.66724,0.03910
1748.60763,0.04049
1746.54802,0.04179
1744.48841,0.04291
1742.42881,0.04413
1740.36920,0.04554
1738.30959,0.04690
1736.24998,0.04820
1734.19037,0.05020
1732.13076,0.05249
1730.07116,0.05414
1728.01155,0.05574
1725.95194,0.05748
1723.89233,0.05959
1721.83272,0.06177
1719.77311,0.06396
1717.71350,0.06698
1715.65390,0.07074
1713.59429,0.07402
1711.53468,0.07708
1709.47507,0.08020
1707.41546,0.08357
1705.35585,0.08755
1703.29624,0.09120
1701.23664,0.09549
1699.17703,0.10173
1697.11742,0.10760
1695.05781,0.11358
1692.99820,0.11883
1690.93859,0.12369
1688.87898,0.12940
1686.81938,0.13485
1684.75977,0.14250
1682.70016,0.15231
1680.64055,0.15884
1678.58094,0.16428
1676.52133,0.17085
1674.46173,0.17884
1672.40212,0.18585
1670.34251,0.19325
1668.28290,0.20238
1666.22329,0.20949
1664.16368,0.21602
1662.10407,0.22439
1660.04447,0.23240
1657.98486,0.23859
1655.92525,0.24343
1653.86564,0.25040
1651.80603,0.25970
1649.74642,0.26331
1647.68681,0.26618
1645.62721,0.27077
1643.56760,0.27350
1641.50799,0.27455
1639.44838,0.27487
1637.38877,0.27458
1635.32916,0.27374
1633.26955,0.27157
1631.20995,0.26820
1629.15034,0.26373
1627.09073,0.25836
1625.03112,0.25240
1622.97151,0.24533
1620.91190,0.23807
1618.85230,0.23101
1616.79269,0.22220
1614.73308,0.21307
1612.67347,0.20541
1610.61386,0.19779
1608.55425,0.18993
1606.49464,0.18218
1604.43504,0.17474
1602.37543,0.16773
1600.31582,0.16129
1598.25621,0.15539
1596.19660,0.14990
1594.13699,0.14476
1592.07738,0.14004
1590.01778,0.13559
1587.95817,0.13142
1585.89856,0.12773
1583.83895,0.12447
1581.77934,0.12147
1579.71973,0.11877
1577.66012,0.11637
1575.60052,0.11415
1573.54091,0.11241
1571.48130,0.11077
1569.42169,0.10917
1567.36208,0.10806
1565.30247,0.10718
1563.24287,0.10617
1561.18326,0.10512
1559.12365,0.10469
1557.06404,0.10534
1555.00443,0.10565
1552.94482,0.10581
1550.88521,0.10597
1548.82561,0.10592
1546.76600,0.10566
1544.70639,0.10512
1542.64678,0.10409
1540.58717,0.10267
1538.52756,0.10129
1536.46795,0.09984
1534.40835,0.09770
1532.34874,0.09514
1530.28913,0.09318
1528.22952,0.09141
1526.16991,0.08950
1524.11030,0.08791
1522.05069,0.08659
1519.99109,0.08526
1517.93148,0.08399
1515.87187,0.08277
1513.81226,0.08153
1511.75265,0.08024
1509.69304,0.07895
1507.63344,0.07756
1505.57383,0.07629
1503.51422,0.07542
1501.45461,0.07457
1499.39500,0.07371
1497.33539,0.07294
1495.27578,0.07229
1493.21618,0.07169
1491.15657,0.07100
1489.09696,0.07037
1487.03735,0.07000
1484.97774,0.06985
1482.91813,0.06988
1480.85852,0.07000
1478.79892,0.07006
1476.73931,0.07013
1474.67970,0.07030
1472.62009,0.07060
1470.56048,0.07079
1468.50087,0.07066
1466.44126,0.07049
1464.38166,0.07046
1462.32205,0.07042
1460.26244,0.07017
1458.20283,0.06984
1456.14322,0.06982
1454.08361,0.06975
1452.02401,0.06930
1449.96440,0.06869
1447.90479,0.06819
1445.84518,0.06783
1443.78557,0.06755
1441.72596,0.06728
1439.66635,0.06693
1437.60675,0.06650
1435.54714,0.06608
1433.48753,0.06578
1431.42792,0.06554
1429.36831,0.06527
1427.30870,0.06501
1425.24909,0.06491
1423.18949,0.06496
1421.12988,0.06495
1419.07027,0.06475
1417.01066,0.06450
1414.95105,0.06431
1412.89144,0.06410
1410.83183,0.06392
1408.77223,0.06373
1406.71262,0.06344
1404.65301,0.06324
1402.59340,0.06322
1400.53379,0.06323
1398.47418,0.06319
1396.41458,0.06295
1394.35497,0.06249
1392.29536,0.06209
1390.23575,0.06184
1388.17614,0.06158
1386.11653,0.06131
1384.05692,0.06105
1381.99732,0.06073
1379.93771,0.06042
1377.87810,0.06009
1375.81849,0.05966
1373.75888,0.05935
1371.69927,0.05936
1369.63966,0.05939
1367.58006,0.05920
1365.52045,0.05891
1363.46084,0.05876
1361.40123,0.05873
1359.34162,0.05870
1357.28201,0.05867
1355.22240,0.05866
1353.16280,0.05859
1351.10319,0.05847
1349.04358,0.05842
1346.98397,0.05850
1344.92436,0.05862
1342.86475,0.05866
1340.80515,0.05861
1338.74554,0.05861
1336.68593,0.05864
1334.62632,0.05851
1332.56671,0.05819
1330.50710,0.05791
1328.44749,0.05784
1326.38789,0.05789
1324.32828,0.05792
1322.26867,0.05780
1320.20906,0.05763
1318.14945,0.05766
1316.08984,0.05774
1314.03023,0.05771
1311.97063,0.05760
1309.91102,0.05750
1307.85141,0.05738
1305.79180,0.05725
1303.73219,0.05720
1301.67258,0.05720
1299.61297,0.05717
1297.55337,0.05709
1295.49376,0.05695
1293.43415,0.05680
1291.37454,0.05670
1289.31493,0.05668
1287.25532,0.05670
1285.19572,0.05667
1283.13611,0.05653
1281.07650,0.05637
1279.01689,0.05621
1276.95728,0.05608
1274.89767,0.05599
1272.83806,0.05591
1270.77846,0.05580
1268.71885,0.05572
1266.65924,0.05566
1264.59963,0.05559
1262.54002,0.05554
1260.48041,0.05548
1258.42080,0.05540
1256.36120,0.05531
1254.30159,0.05517
1252.24198,0.05503
1250.18237,0.05489
1248.12276,0.05469
1246.06315,0.05448
1244.00354,0.05430
1241.94394,0.05420
1239.88433,0.05417
1237.82472,0.05414
1235.76511,0.05400
1233.70550,0.05378
1231.64589,0.05353
1229.58629,0.05322
1227.52668,0.05289
1225.46707,0.05252
1223.40746,0.05215
1221.34785,0.05186
1219.28824,0.05165
1217.22863,0.05146
1215.16903,0.05128
1213.10942,0.05107
1211.04981,0.05085
1208.99020,0.05072
1206.93059,0.05066
1204.87098,0.05060
1202.81137,0.05045
1200.75177,0.05020
1198.69216,0.05000
1196.63255,0.04992
1194.57294,0.04984
1192.51333,0.04969
1190.45372,0.04954
1188.39411,0.04946
1186.33451,0.04942
1184.27490,0.04941
1182.21529,0.04942
1180.15568,0.04945
1178.09607,0.04951
1176.03646,0.04955
1173.97686,0.04951
1171.91725,0.04942
1169.85764,0.04933
1167.79803,0.04925
1165.73842,0.04912
1163.67881,0.04900
1161.61920,0.04887
1159.55960,0.04864
1157.49999,0.04848
1155.44038,0.04848
1153.38077,0.04846
1151.32116,0.04829
1149.26155,0.04806
1147.20194,0.04794
1145.14234,0.04789
1143.08273,0.04781
1141.02312,0.04776
1138.96351,0.04777
1136.90390,0.04772
1134.84429,0.04759
1132.78468,0.04758
1130.72508,0.04769
1128.66547,0.04775
1126.60586,0.04779
1124.54625,0.04784
1122.48664,0.04773
1120.42703,0.04753
1118.36743,0.04750
1116.30782,0.04758
1114.24821,0.04762
1112.18860,0.04759
1110.12899,0.04755
1108.06938,0.04754
1106.00977,0.04750
1103.95017,0.04745
1101.89056,0.04743
1099.83095,0.04740
1097.77134,0.04731
1095.71173,0.04714
1093.65212,0.04705
1091.59251,0.04716
1089.53291,0.04736
1087.47330,0.04751
1085.41369,0.04752
1083.35408,0.04741
1081.29447,0.04734
1079.23486,0.04731
1077.17525,0.04736
1075.11565,0.04740
1073.05604,0.04725
1070.99643,0.04709
1068.93682,0.04702
1066.87721,0.04698
1064.81760,0.04694
1062.75800,0.04683
1060.69839,0.04673
1058.63878,0.04674
1056.57917,0.04681
1054.51956,0.04683
1052.45995,0.04676
1050.40034,0.04674
1048.34074,0.04680
1046.28113,0.04682
1044.22152,0.04675
1042.16191,0.04670
1040.10230,0.04687
1038.04269,0.04713
1035.98308,0.04730
1033.92348,0.04741
1031.86387,0.04753
1029.80426,0.04769
1027.74465,0.04773
1025.68504,0.04768
1023.62543,0.04775
1021.56582,0.04790
1019.50622,0.04799
1017.44661,0.04804
1015.38700,0.04814
1013.32739,0.04836
1011.26778,0.04863
1009.20817,0.04893
1007.14857,0.04914
1005.08896,0.04922
1003.02935,0.04928
1000.96974,0.04946
998.91013,0.04969
996.85052,0.04985
994.79091,0.05001
992.73131,0.05027
990.67170,0.05056
988.61209,0.05077
986.55248,0.05102
984.49287,0.05135
982.43326,0.05156
980.37365,0.05167
978.31405,0.05189
976.25444,0.05231
974.19483,0.05285
972.13522,0.05331
970.07561,0.05363
968.01600,0.05405
965.95639,0.05457
963.89679,0.05497
961.83718,0.05531
959.77757,0.05571
957.71796,0.05621
955.65835,0.05680
953.59874,0.05741
951.53914,0.05798
949.47953,0.05854
947.41992,0.05913
945.36031,0.05980
943.30070,0.06052
941.24109,0.06117
939.18148,0.06181
937.12188,0.06250
935.06227,0.06327
933.00266,0.06407
930.94305,0.06480
928.88344,0.06558
926.82383,0.06649
924.76422,0.06740
922.70462,0.06826
920.64501,0.06914
918.58540,0.07011
916.52579,0.07109
914.46618,0.07206
912.40657,0.07306
910.34696,0.07401
908.28736,0.07501
906.22775,0.07616
904.16814,0.07727
902.10853,0.07828
900.04892,0.07941
897.98931,0.08067
895.92971,0.08195
893.87010,0.08325
891.81049,0.08457
889.75088,0.08591
887.69127,0.08722
885.63166,0.08848
883.57205,0.08978
881.51245,0.09111
879.45284,0.09246
877.39323,0.09384
875.33362,0.09527
873.27401,0.09680
871.21440,0.09832
869.15479,0.09967
867.09519,0.10097
865.03558,0.10242
862.97597,0.10398
860.91636,0.10547
858.85675,0.10699
856.79714,0.10865
854.73753,0.11020
852.67793,0.11155
850.61832,0.11296
848.55871,0.11452
846.49910,0.11623
844.43949,0.11786
842.37988,0.11942
840.32028,0.12111
838.26067,0.12280
836.20106,0.12431
834.14145,0.12566
832.08184,0.12706
830.02223,0.12857
827.96262,0.13022
825.90302,0.13195
823.84341,0.13354
821.78380,0.13497
819.72419,0.13643
817.66458,0.13800
815.60497,0.13967
813.54536,0.14137
811.48576,0.14309
809.42615,0.14476
807.36654,0.14628
805.30693,0.14762
803.24732,0.14901
801.18771,0.15058
799.12810,0.15228
