2996.73039,0.00526
2994.67079,0.00520
2992.61118,0.00515
2990.55157,0.00543
2988.49196,0.00548
2986.43235,0.00497
2984.37274,0.00452
2982.31313,0.00427
2980.25353,0.00434
2978.19392,0.00481
2976.13431,0.00495
2974.07470,0.00445
2972.01509,0.00369
2969.95548,0.00305
2967.89587,0.00248
2965.83627,0.00153
2963.77666,0.00002
2961.71705,-0.00161
2959.65744,-0.00291
2957.59783,-0.00382
2955.53822,-0.00438
2953.47861,-0.00429
2951.41901,-0.00332
2949.35940,-0.00201
2947.29979,-0.00146
2945.24018,-0.00183
2943.18057,-0.00264
2941.12096,-0.00366
2939.06136,-0.00503
2937.00175,-0.00706
2934.94214,-0.00973
2932.88253,-0.01289
2930.82292,-0.01658
2928.76331,-0.02087
2926.70370,-0.02605
2924.64410,-0.03249
2922.58449,-0.04017
2920.52488,-0.04849
2918.46527,-0.05556
2916.40566,-0.05728
2914.34605,-0.05071
2912.28644,-0.03912
2910.22684,-0.02883
2908.16723,-0.02224
2906.10762,-0.01807
2904.04801,-0.01520
2901.98840,-0.01325
2899.92879,-0.01173
2897.86918,-0.01028
2895.80958,-0.00905
2893.74997,-0.00802
2891.69036,-0.00697
2889.63075,-0.00606
2887.57114,-0.00530
2885.51153,-0.00443
2883.45193,-0.00362
2881.39232,-0.00317
2879.33271,-0.00306
2877.27310,-0.00297
2875.21349,-0.00270
2873.15388,-0.00254
2871.09427,-0.00267
2869.03467,-0.00287
2866.97506,-0.00321
2864.91545,-0.00402
2862.85584,-0.00520
2860.79623,-0.00669
2858.73662,-0.00886
2856.67701,-0.01220
2854.61741,-0.01747
2852.55780,-0.02541
2850.49819,-0.03363
2848.43858,-0.03533
2846.37897,-0.02782
2844.31936,-0.01732
2842.25975,-0.00946
2840.20015,-0.00449
2838.14054,-0.00147
2836.08093,0.00024
2834.02132,0.00120
2831.96171,0.00199
2829.90210,0.00286
2827.84250,0.00345
2825.78289,0.00378
2823.72328,0.00423
2821.66367,0.00466
2819.60406,0.00487
2817.54445,0.00499
2815.48484,0.00509
2813.42524,0.00511
2811.36563,0.00521
2809.30602,0.00553
2807.24641,0.00579
2805.18680,0.00604
2803.12719,0.00665
2801.06758,0.00734
2799.00798,0.00760
2796.94837,0.00759
2794.88876,0.00758
2792.82915,0.00765
2790.76954,0.00796
2788.70993,0.00844
2786.65032,0.00889
2784.59072,0.00924
2782.53111,0.00967
2780.47150,0.01006
2778.41189,0.01034
2776.35228,0.01081
2774.29267,0.01149
2772.23307,0.01210
2770.17346,0.01262
2768.11385,0.01321
2766.05424,0.01394
2763.99463,0.01479
2761.93502,0.01576
2759.87541,0.01697
2757.81581,0.01834
2755.75620,0.01963
2753.69659,0.02085
2751.63698,0.02227
2749.57737,0.02407
2747.51776,0.02609
2745.45815,0.02827
2743.39855,0.03073
2741.33894,0.03342
2739.27933,0.03625
2737.21972,0.03932
2735.16011,0.04287
2733.10050,0.04696
2731.04089,0.05124
2728.98129,0.05568
2726.92168,0.06049
2724.86207,0.06579
2722.80246,0.07173
2720.74285,0.07812
2718.68324,0.08465
2716.62364,0.09146
2714.56403,0.09874
2712.50442,0.10635
2710.44481,0.11416
2708.38520,0.12199
2706.32559,0.12976
2704.26598,0.13769
2702.20638,0.14576
2700.14677,0.15371
2698.08716,0.16161
2696.02755,0.16964
2693.96794,0.17772
2691.90833,0.18564
2689.84872,0.19315
2687.78912,0.20039
2685.72951,0.20784
2683.66990,0.21550
2681.61029,0.22290
2679.55068,0.22985
2677.49107,0.23658
2675.43146,0.24327
2673.37186,0.25038
2671.31225,0.25790
2669.25264,0.26513
2667.19303,0.27197
2665.13342,0.27876
2663.07381,0.28534
2661.01421,0.29184
2658.95460,0.29872
2656.89499,0.30564
2654.83538,0.31225
2652.77577,0.31883
2650.71616,0.32539
2648.65655,0.33180
2646.59695,0.33830
2644.53734,0.34488
2642.47773,0.35135
2640.41812,0.35782
2638.35851,0.36438
2636.29890,0.37087
2634.23929,0.37730
2632.17969,0.38374
2630.12008,0.39009
2628.06047,0.39650
2626.00086,0.40305
2623.94125,0.40954
2621.88164,0.41613
2619.82203,0.42300
2617.76243,0.42964
2615.70282,0.43555
2613.64321,0.44097
2611.58360,0.44661
2609.52399,0.45251
2607.46438,0.45830
2605.40478,0.46392
2603.34517,0.46950
2601.28556,0.47504
2599.22595,0.48046
2597.16634,0.48564
2595.10673,0.49073
2593.04712,0.49595
2590.98752,0.50101
2588.92791,0.50558
2586.86830,0.50998
2584.80869,0.51459
2582.74908,0.51900
2580.68947,0.52311
2578.62986,0.52737
2576.57026,0.53162
2574.51065,0.53562
2572.45104,0.53980
2570.39143,0.54435
2568.33182,0.54858
2566.27221,0.55211
2564.21260,0.55519
2562.15300,0.55848
2560.09339,0.56225
2558.03378,0.56586
2555.97417,0.56951
2553.91456,0.57384
2551.85495,0.57817
2549.79535,0.58191
2547.73574,0.58597
2545.67613,0.59062
2543.61652,0.59491
2541.55691,0.59890
2539.49730,0.60327
2537.43769,0.60787
2535.37809,0.61253
2533.31848,0.61729
2531.25887,0.62247
2529.19926,0.62835
2527.13965,0.63425
2525.08004,0.64001
2523.02043,0.64613
2520.96083,0.65219
2518.90122,0.65788
2516.84161,0.66350
2514.78200,0.66921
2512.72239,0.67552
2510.66278,0.68216
2508.60317,0.68807
2506.54357,0.69344
2504.48396,0.69875
2502.42435,0.70402
2500.36474,0.70918
2498.30513,0.71432
2496.24552,0.71988
2494.18592,0.72580
2492.12631,0.73085
2490.06670,0.73447
2488.00709,0.73752
2485.94748,0.74065
2483.88787,0.74340
2481.82826,0.74509
2479.76866,0.74634
2477.70905,0.74757
2475.64944,0.74835
2473.58983,0.74907
2471.53022,0.75001
2469.47061,0.75022
2467.41100,0.74946
2465.35140,0.74831
2463.29179,0.74693
2461.23218,0.74520
2459.17257,0.74314
2457.11296,0.74086
2455.05335,0.73827
2452.99374,0.73555
2450.93414,0.73297
2448.87453,0.73037
2446.81492,0.72742
2444.75531,0.72426
2442.69570,0.72172
2440.63609,0.71960
2438.57649,0.71723
2436.51688,0.71525
2434.45727,0.71387
2432.39766,0.71245
2430.33805,0.71099
2428.27844,0.70981
2426.21883,0.70881
2424.15923,0.70765
2422.09962,0.70631
2420.04001,0.70554
2417.98040,0.70555
2415.92079,0.70528
2413.86118,0.70448
2411.80157,0.70389
2409.74197,0.70371
2407.68236,0.70336
2405.62275,0.70254
2403.56314,0.70164
2401.50353,0.70042
2399.44392,0.69859
2397.38431,0.69697
2395.32471,0.69546
2393.26510,0.69301
2391.20549,0.69003
2389.14588,0.68715
2387.08627,0.68397
2385.02666,0.68004
2382.96706,0.67509
2380.90745,0.66968
2378.84784,0.66453
2376.78823,0.65905
2374.72862,0.65239
2372.66901,0.64500
2370.60940,0.63733
2368.54980,0.62910
2366.49019,0.62044
2364.43058,0.61136
2362.37097,0.60186
2360.31136,0.59240
2358.25175,0.58258
2356.19214,0.57150
2354.13254,0.55984
2352.07293,0.54810
2350.01332,0.53624
2347.95371,0.52450
2345.89410,0.51225
2343.83449,0.49931
2341.77488,0.48661
2339.71528,0.47445
2337.65567,0.46263
2335.59606,0.45062
2333.53645,0.43859
2331.47684,0.42703
2329.41723,0.41514
2327.35763,0.40263
2325.29802,0.39004
2323.23841,0.37728
2321.17880,0.36453
2319.11919,0.35245
2317.05958,0.34116
2314.99997,0.33010
2312.94037,0.31886
2310.88076,0.30787
2308.82115,0.29774
2306.76154,0.28819
2304.70193,0.27863
2302.64232,0.26926
2300.58271,0.26037
2298.52311,0.25179
2296.46350,0.24359
2294.40389,0.23598
2292.34428,0.22852
2290.28467,0.22073
2288.22506,0.21303
2286.16545,0.20568
2284.10585,0.19853
2282.04624,0.19178
2279.98663,0.18554
2277.92702,0.17968
2275.86741,0.17395
2273.80780,0.16826
2271.74820,0.16285
2269.68859,0.15748
2267.62898,0.15193
2265.56937,0.14663
2263.50976,0.14232
2261.45015,0.13861
2259.39054,0.13462
2257.33094,0.13051
2255.27133,0.12671
2253.21172,0.12319
2251.15211,0.11933
2249.09250,0.11475
2247.03289,0.11033
2244.97328,0.10696
2242.91368,0.10389
2240.85407,0.10066
2238.79446,0.09767
2236.73485,0.09479
2234.67524,0.09177
2232.61563,0.08888
2230.55602,0.08603
2228.49642,0.08326
2226.43681,0.08081
2224.37720,0.07884
2222.31759,0.07711
2220.25798,0.07452
2218.19837,0.07135
2216.13877,0.06880
2214.07916,0.06705
2212.01955,0.06580
2209.95994,0.06431
2207.90033,0.06239
2205.84072,0.06074
2203.78111,0.05903
2201.72151,0.05664
2199.66190,0.05445
2197.60229,0.05371
2195.54268,0.05383
2193.48307,0.05335
2191.42346,0.05223
2189.36385,0.05042
2187.30425,0.04778
2185.24464,0.04538
2183.18503,0.04373
2181.12542,0.04219
2179.06581,0.04049
2177.00620,0.03850
2174.94659,0.03640
2172.88699,0.03547
2170.82738,0.03505
2168.76777,0.03423
2166.70816,0.03407
2164.64855,0.03333
2162.58894,0.03086
2160.52934,0.02875
2158.46973,0.02788
2156.41012,0.02744
2154.35051,0.02730
2152.29090,0.02755
2150.23129,0.02814
2148.17168,0.02880
2146.11208,0.02888
2144.05247,0.02807
2141.99286,0.02679
2139.93325,0.02572
2137.87364,0.02547
2135.81403,0.02549
2133.75442,0.02504
2131.69482,0.02449
2129.63521,0.02413
2127.57560,0.02381
2125.51599,0.02379
2123.45638,0.02411
2121.39677,0.02404
2119.33716,0.02326
2117.27756,0.02216
2115.21795,0.02123
2113.15834,0.02026
2111.09873,0.01928
2109.03912,0.01907
2106.97951,0.01876
2104.91991,0.01776
2102.86030,0.01751
2100.80069,0.01793
2098.74108,0.01793
2096.68147,0.01743
2094.62186,0.01663
2092.56225,0.01596
2090.50265,0.01580
2088.44304,0.01576
2086.38343,0.01548
2084.32382,0.01510
2082.26421,0.01468
2080.20460,0.01455
2078.14499,0.01475
2076.08539,0.01466
2074.02578,0.01443
2071.96617,0.01434
2069.90656,0.01412
2067.84695,0.01371
2065.78734,0.01314
2063.72773,0.01244
2061.66813,0.01184
2059.60852,0.01168
2057.54891,0.01172
2055.48930,0.01144
2053.42969,0.01103
2051.37008,0.01074
2049.31048,0.00989
2047.25087,0.00855
2045.19126,0.00793
2043.13165,0.00814
2041.07204,0.00832
2039.01243,0.00802
2036.95282,0.00783
2034.89322,0.00821
2032.83361,0.00855
2030.77400,0.00848
2028.71439,0.00793
2026.65478,0.00785
2024.59517,0.00878
2022.53556,0.00886
2020.47596,0.00785
2018.41635,0.00799
2016.35674,0.00916
2014.29713,0.00950
2012.23752,0.00935
2010.17791,0.00916
2008.11830,0.00826
2006.05870,0.00713
2003.99909,0.00653
2001.93948,0.00627
1999.87987,0.00631
1997.82026,0.00622
1995.76065,0.00588
1993.70105,0.00590
1991.64144,0.00592
1989.58183,0.00551
1987.52222,0.00492
1985.46261,0.00472
1983.40300,0.00538
1981.34339,0.00594
1979.28379,0.00570
1977.22418,0.00495
1975.16457,0.00423
1973.10496,0.00425
1971.04535,0.00461
1968.98574,0.00475
1966.92613,0.00456
1964.86653,0.00413
1962.80692,0.00429
1960.74731,0.00505
1958.68770,0.00591
1956.62809,0.00663
1954.56848,0.00685
1952.50887,0.00637
1950.44927,0.00581
1948.38966,0.00591
1946.33005,0.00642
1944.27044,0.00669
1942.21083,0.00641
1940.15122,0.00608
1938.09162,0.00619
1936.03201,0.00603
1933.97240,0.00552
1931.91279,0.00527
1929.85318,0.00515
1927.79357,0.00565
1925.73396,0.00673
1923.67436,0.00703
1921.61475,0.00674
1919.55514,0.00661
1917.49553,0.00621
1915.43592,0.00577
1913.37631,0.00606
1911.31670,0.00673
1909.25710,0.00683
1907.19749,0.00649
1905.13788,0.00654
1903.07827,0.00701
1901.01866,0.00752
1898.95905,0.00774
1896.89944,0.00740
1894.83984,0.00692
1892.78023,0.00669
1890.72062,0.00649
1888.66101,0.00635
1886.60140,0.00657
1884.54179,0.00714
1882.48219,0.00753
1880.42258,0.00732
1878.36297,0.00696
1876.30336,0.00700
1874.24375,0.00725
1872.18414,0.00720
1870.12453,0.00691
1868.06493,0.00677
1866.00532,0.00667
1863.94571,0.00661
1861.88610,0.00687
1859.82649,0.00725
1857.76688,0.00728
1855.70727,0.00710
1853.64767,0.00709
1851.58806,0.00731
1849.52845,0.00764
1847.46884,0.00801
1845.40923,0.00819
1843.34962,0.00800
1841.29002,0.00788
1839.23041,0.00810
1837.17080,0.00832
1835.11119,0.00849
1833.05158,0.00863
1830.99197,0.00855
1828.93236,0.00855
1826.87276,0.00873
1824.81315,0.00871
1822.75354,0.00863
1820.69393,0.00860
1818.63432,0.00860
1816.57471,0.00870
1814.51510,0.00885
1812.45550,0.00909
1810.39589,0.00944
1808.33628,0.00963
1806.27667,0.00962
1804.21706,0.00968
1802.15745,0.00973
1800.09784,0.00967
1798.03824,0.00963
1795.97863,0.00971
1793.91902,0.01000
1791.85941,0.01029
1789.79980,0.01028
1787.74019,0.01033
1785.68059,0.01052
1783.62098,0.01069
1781.56137,0.01083
1779.50176,0.01090
1777.44215,0.01087
1775.38254,0.01077
1773.32293,0.01075
1771.26333,0.01092
1769.20372,0.01102
1767.14411,0.01109
1765.08450,0.01121
1763.02489,0.01130
1760.96528,0.01137
1758.90567,0.01150
1756.84607,0.01184
1754.78646,0.01230
1752.72685,0.01259
1750.66724,0.01251
1748.60763,0.01228
1746.54802,0.01232
1744.48841,0.01248
1742.42881,0.01260
1740.36920,0.01273
1738.30959,0.01275
1736.24998,0.01272
1734.19037,0.01296
1732.13076,0.01322
1730.07116,0.01323
1728.01155,0.01319
1725.95194,0.01329
1723.89233,0.01354
1721.83272,0.01377
1719.77311,0.01402
1717.71350,0.01435
1715.65390,0.01448
1713.59429,0.01450
1711.53468,0.01473
1709.47507,0.01509
1707.41546,0.01548
1705.35585,0.01583
1703.29624,0.01605
1701.23664,0.01640
1699.17703,0.01690
1697.11742,0.01741
1695.05781,0.01798
1692.99820,0.01848
1690.93859,0.01916
1688.87898,0.02011
1686.81938,0.02103
1684.75977,0.02249
1682.70016,0.02464
1680.64055,0.02629
1678.58094,0.02785
1676.52133,0.02989
1674.46173,0.03244
1672.40212,0.03469
1670.34251,0.03708
1668.28290,0.04001
1666.22329,0.04241
1664.16368,0.04476
1662.10407,0.04785
1660.04447,0.05091
1657.98486,0.05325
1655.92525,0.05487
1653.86564,0.05637
1651.80603,0.05775
1649.74642,0.05789
1647.68681,0.05743
1645.62721,0.05666
1643.56760,0.05572
1641.50799,0.05460
1639.44838,0.05339
1637.38877,0.05202
1635.32916,0.04969
1633.26955,0.04702
1631.20995,0.04486
1629.15034,0.04269
1627.09073,0.04045
1625.03112,0.03860
1622.97151,0.03707
1620.91190,0.03580
1618.85230,0.03483
1616.79269,0.03397
1614.73308,0.03339
1612.67347,0.03303
1610.61386,0.03273
1608.55425,0.03251
1606.49464,0.03225
1604.43504,0.03177
1602.37543,0.03129
1600.31582,0.03105
1598.25621,0.03103
1596.19660,0.03115
1594.13699,0.03132
1592.07738,0.03146
1590.01778,0.03158
1587.95817,0.03152
1585.89856,0.03116
1583.83895,0.03047
1581.77934,0.02932
1579.71973,0.02796
1577.66012,0.02694
1575.60052,0.02687
1573.54091,0.02743
1571.48130,0.02790
1569.42169,0.02835
1567.36208,0.02880
1565.30247,0.02912
1563.24287,0.02927
1561.18326,0.02940
1559.12365,0.02977
1557.06404,0.03023
1555.00443,0.03051
1552.94482,0.03069
1550.88521,0.03073
1548.82561,0.03055
1546.76600,0.03007
1544.70639,0.02908
1542.64678,0.02784
1540.58717,0.02732
1538.52756,0.02782
1536.46795,0.02839
1534.40835,0.02901
1532.34874,0.02970
1530.28913,0.03014
1528.22952,0.03026
1526.16991,0.03017
1524.11030,0.03015
1522.05069,0.03037
1519.99109,0.03052
1517.93148,0.03056
1515.87187,0.03063
1513.81226,0.03047
1511.75265,0.03014
1509.69304,0.02987
1507.63344,0.02973
1505.57383,0.02959
1503.51422,0.02946
1501.45461,0.02945
1499.39500,0.02965
1497.33539,0.03005
1495.27578,0.03044
1493.21618,0.03064
1491.15657,0.03087
1489.09696,0.03134
1487.03735,0.03183
1484.97774,0.03227
1482.91813,0.03278
1480.85852,0.03325
1478.79892,0.03357
1476.73931,0.03379
1474.67970,0.03391
1472.62009,0.03435
1470.56048,0.03534
1468.50087,0.03618
1466.44126,0.03683
1464.38166,0.03745
1462.32205,0.03823
1460.26244,0.03923
1458.20283,0.04050
1456.14322,0.04169
1454.08361,0.04190
1452.02401,0.04152
1449.96440,0.04108
1447.90479,0.04068
1445.84518,0.04014
1443.78557,0.03944
1441.72596,0.03863
1439.66635,0.03769
1437.60675,0.03651
1435.54714,0.03515
1433.48753,0.03410
1431.42792,0.03321
1429.36831,0.03212
1427.30870,0.03092
1425.24909,0.02977
1423.18949,0.02866
1421.12988,0.02775
1419.07027,0.02682
1417.01066,0.02580
1414.95105,0.02499
1412.89144,0.02432
1410.83183,0.02379
1408.77223,0.02346
1406.71262,0.02320
1404.65301,0.02290
1402.59340,0.02262
1400.53379,0.02239
1398.47418,0.02207
1396.41458,0.02160
1394.35497,0.02107
1392.29536,0.02060
1390.23575,0.02018
1388.17614,0.01977
1386.11653,0.01937
1384.05692,0.01894
1381.99732,0.01844
1379.93771,0.01790
1377.87810,0.01749
1375.81849,0.01732
1373.75888,0.01736
1371.69927,0.01752
1369.63966,0.01757
1367.58006,0.01748
1365.52045,0.01746
1363.46084,0.01760
1361.40123,0.01774
1359.34162,0.01775
1357.28201,0.01773
1355.22240,0.01778
1353.16280,0.01784
1351.10319,0.01793
1349.04358,0.01810
1346.98397,0.01832
1344.92436,0.01860
1342.86475,0.01894
1340.80515,0.01924
1338.74554,0.01941
1336.68593,0.01949
1334.62632,0.01947
1332.56671,0.01937
1330.50710,0.01936
1328.44749,0.01944
1326.38789,0.01948
1324.32828,0.01949
1322.26867,0.01950
1320.20906,0.01957
1318.14945,0.01982
1316.08984,0.02015
1314.03023,0.02039
1311.97063,0.02053
1309.91102,0.02071
1307.85141,0.02094
1305.79180,0.02118
1303.73219,0.02146
1301.67258,0.02176
1299.61297,0.02212
1297.55337,0.02263
1295.49376,0.02320
1293.43415,0.02370
1291.37454,0.02418
1289.31493,0.02481
1287.25532,0.02560
1285.19572,0.02633
1283.13611,0.02702
1281.07650,0.02784
1279.01689,0.02877
1276.95728,0.02981
1274.89767,0.03105
1272.83806,0.03241
1270.77846,0.03381
1268.71885,0.03541
1266.65924,0.03725
1264.59963,0.03918
1262.54002,0.04127
1260.48041,0.04372
1258.42080,0.04654
1256.36120,0.04965
1254.30159,0.05302
1252.24198,0.05671
1250.18237,0.06080
1248.12276,0.06529
1246.06315,0.07021
1244.00354,0.07554
1241.94394,0.08131
1239.88433,0.08753
1237.82472,0.09409
1235.76511,0.10084
1233.70550,0.10787
1231.64589,0.11529
1229.58629,0.12297
1227.52668,0.13075
1225.46707,0.13860
1223.40746,0.14642
1221.34785,0.15425
1219.28824,0.16199
1217.22863,0.16935
1215.16903,0.17620
1213.10942,0.18241
1211.04981,0.18774
1208.99020,0.19190
1206.93059,0.19464
1204.87098,0.19569
1202.81137,0.19492
1200.75177,0.19225
1198.69216,0.18773
1196.63255,0.18172
1194.57294,0.17455
1192.51333,0.16638
1190.45372,0.15751
1188.39411,0.14844
1186.33451,0.13957
1184.27490,0.13116
1182.21529,0.12335
1180.15568,0.11611
1178.09607,0.10940
1176.03646,0.10322
1173.97686,0.09764
1171.91725,0.09275
1169.85764,0.08836
1167.79803,0.08429
1165.73842,0.08045
1163.67881,0.07692
1161.61920,0.07382
1159.55960,0.07107
1157.49999,0.06853
1155.44038,0.06617
1153.38077,0.06400
1151.32116,0.06198
1149.26155,0.06011
1147.20194,0.05844
1145.14234,0.05697
1143.08273,0.05557
1141.02312,0.05421
1138.96351,0.05301
1136.90390,0.05193
1134.84429,0.05089
1132.78468,0.04988
1130.72508,0.04895
1128.66547,0.04810
1126.60586,0.04732
1124.54625,0.04666
1122.48664,0.04600
1120.42703,0.04530
1118.36743,0.04464
1116.30782,0.04406
1114.24821,0.04351
1112.18860,0.04303
1110.12899,0.04272
1108.06938,0.04246
1106.00977,0.04210
1103.95017,0.04173
1101.89056,0.04142
1099.83095,0.04117
1097.77134,0.04100
1095.71173,0.04083
1093.65212,0.04062
1091.59251,0.04034
1089.53291,0.04011
1087.47330,0.03999
1085.41369,0.03981
1083.35408,0.03959
1081.29447,0.03943
1079.23486,0.03921
1077.17525,0.03891
1075.11565,0.03866
1073.05604,0.03842
1070.99643,0.03819
1068.93682,0.03802
1066.87721,0.03785
1064.81760,0.03763
1062.75800,0.03742
1060.69839,0.03730
1058.63878,0.03726
1056.57917,0.03725
1054.51956,0.03715
1052.45995,0.03688
1050.40034,0.03656
1048.34074,0.03639
1046.28113,0.03642
1044.22152,0.03636
1042.16191,0.03611
1040.10230,0.03584
1038.04269,0.03570
1035.98308,0.03567
1033.92348,0.03571
1031.86387,0.03573
1029.80426,0.03560
1027.74465,0.03534
1025.68504,0.03506
1023.62543,0.03489
1021.56582,0.03476
1019.50622,0.03461
1017.44661,0.03451
1015.38700,0.03446
1013.32739,0.03438
1011.26778,0.03430
1009.20817,0.03433
1007.14857,0.03447
1005.08896,0.03454
1003.02935,0.03451
1000.96974,0.03452
998.91013,0.03448
996.85052,0.03432
994.79091,0.03414
992.73131,0.03412
990.67170,0.03419
988.61209,0.03411
986.55248,0.03391
984.49287,0.03381
982.43326,0.03374
980.37365,0.03364
978.31405,0.03360
976.25444,0.03361
974.19483,0.03364
972.13522,0.03358
970.07561,0.03341
968.01600,0.03345
965.95639,0.03362
963.89679,0.03354
961.83718,0.03331
959.77757,0.03320
957.71796,0.03315
955.65835,0.03308
953.59874,0.03303
951.53914,0.03310
949.47953,0.03317
947.41992,0.03308
945.36031,0.03292
943.30070,0.03287
941.24109,0.03289
939.18148,0.03289
937.12188,0.03279
935.06227,0.03273
933.00266,0.03282
930.94305,0.03287
928.88344,0.03280
926.82383,0.03275
924.76422,0.03277
922.70462,0.03280
920.64501,0.03269
918.58540,0.03252
916.52579,0.03246
914.46618,0.03246
912.40657,0.03240
910.34696,0.03232
908.28736,0.03229
906.22775,0.03229
904.16814,0.03225
902.10853,0.03219
900.04892,0.03223
897.98931,0.03234
895.92971,0.03233
893.87010,0.03223
891.81049,0.03215
889.75088,0.03218
887.69127,0.03232
885.63166,0.03237
883.57205,0.03230
881.51245,0.03224
879.45284,0.03219
877.39323,0.03208
875.33362,0.03201
873.27401,0.03206
871.21440,0.03206
869.15479,0.03195
867.09519,0.03188
865.03558,0.03195
862.97597,0.03209
860.91636,0.03213
858.85675,0.03206
856.79714,0.03210
854.73753,0.03227
852.67793,0.03235
850.61832,0.03233
848.55871,0.03234
846.49910,0.03232
844.43949,0.03229
842.37988,0.03235
840.32028,0.03253
838.26067,0.03268
836.20106,0.03265
834.14145,0.03248
832.08184,0.03240
830.02223,0.03244
827.96262,0.03253
825.90302,0.03264
823.84341,0.03274
821.78380,0.03289
819.72419,0.03304
817.66458,0.03305
815.60497,0.03311
813.54536,0.03340
811.48576,0.03369
809.42615,0.03379
807.36654,0.03369
805.30693,0.03355
803.24732,0.03368
801.18771,0.03403
799.12810,0.03434
