2996.73039,-0.01642
2994.67079,-0.01600
2992.61118,-0.01509
2990.55157,-0.01389
2988.49196,-0.01311
2986.43235,-0.01299
2984.37274,-0.01275
2982.31313,-0.01197
2980.25353,-0.01078
2978.19392,-0.00968
2976.13431,-0.00906
2974.07470,-0.00856
2972.01509,-0.00771
2969.95548,-0.00641
2967.89587,-0.00464
2965.83627,-0.00290
2963.77666,-0.00208
2961.71705,-0.00212
2959.65744,-0.00218
2957.59783,-0.00184
2955.53822,-0.00131
2953.47861,-0.00077
2951.41901,-0.00041
2949.35940,-0.00036
2947.29979,-0.00058
2945.24018,-0.00052
2943.18057,0.00031
2941.12096,0.00132
2939.06136,0.00243
2937.00175,0.00386
2934.94214,0.00511
2932.88253,0.00614
2930.82292,0.00706
2928.76331,0.00794
2926.70370,0.00883
2924.64410,0.00899
2922.58449,0.00832
2920.52488,0.00767
2918.46527,0.00722
2916.40566,0.00648
2914.34605,0.00516
2912.28644,0.00358
2910.22684,0.00205
2908.16723,0.00089
2906.10762,0.00024
2904.04801,-0.00024
2901.98840,-0.00064
2899.92879,-0.00082
2897.86918,-0.00103
2895.80958,-0.00127
2893.74997,-0.00120
2891.69036,-0.00113
2889.63075,-0.00158
2887.57114,-0.00212
2885.51153,-0.00193
2883.45193,-0.00108
2881.39232,-0.00045
2879.33271,-0.00032
2877.27310,-0.00019
2875.21349,0.00020
2873.15388,0.00077
2871.09427,0.00100
2869.03467,0.00068
2866.97506,0.00032
2864.91545,0.00022
2862.85584,0.00047
2860.79623,0.00116
2858.73662,0.00205
2856.67701,0.00277
2854.61741,0.00312
2852.55780,0.00276
2850.49819,0.00189
2848.43858,0.00127
2846.37897,0.00081
2844.31936,-0.00012
2842.25975,-0.00098
2840.20015,-0.00129
2838.14054,-0.00149
2836.08093,-0.00164
2834.02132,-0.00175
2831.96171,-0.00214
2829.90210,-0.00234
2827.84250,-0.00198
2825.78289,-0.00151
2823.72328,-0.00124
2821.66367,-0.00133
2819.60406,-0.00171
2817.54445,-0.00196
2815.48484,-0.00208
2813.42524,-0.00185
2811.36563,-0.00138
2809.30602,-0.00131
2807.24641,-0.00148
2805.18680,-0.00151
2803.12719,-0.00136
2801.06758,-0.00109
2799.00798,-0.00099
2796.94837,-0.00114
2794.88876,-0.00132
2792.82915,-0.00154
2790.76954,-0.00175
2788.70993,-0.00169
2786.65032,-0.00132
2784.59072,-0.00106
2782.53111,-0.00118
2780.47150,-0.00146
2778.41189,-0.00166
2776.35228,-0.00151
2774.29267,-0.00099
2772.23307,-0.00077
2770.17346,-0.00113
2768.11385,-0.00154
2766.05424,-0.00155
2763.99463,-0.00133
2761.93502,-0.00130
2759.87541,-0.00112
2757.81581,-0.00078
2755.75620,-0.00090
2753.69659,-0.00117
2751.63698,-0.00123
2749.57737,-0.00124
2747.51776,-0.00127
2745.45815,-0.00114
2743.39855,-0.00092
2741.33894,-0.00099
2739.27933,-0.00124
2737.21972,-0.00119
2735.16011,-0.00105
2733.10050,-0.00103
2731.04089,-0.00084
2728.98129,-0.00072
2726.92168,-0.00098
2724.86207,-0.00126
2722.80246,-0.00114
2720.74285,-0.00099
2718.68324,-0.00123
2716.62364,-0.00138
2714.56403,-0.00116
2712.50442,-0.00098
2710.44481,-0.00084
2708.38520,-0.00050
2706.32559,-0.00023
2704.26598,-0.00019
2702.20638,-0.00032
2700.14677,-0.00046
2698.08716,-0.00043
2696.02755,-0.00038
2693.96794,-0.00021
2691.90833,0.00007
2689.84872,-0.00002
2687.78912,-0.00033
2685.72951,-0.00058
2683.66990,-0.00070
2681.61029,-0.00062
2679.55068,-0.00051
2677.49107,-0.00052
2675.43146,-0.00060
2673.37186,-0.00045
2671.31225,0.00002
2669.25264,0.00020
2667.19303,-0.00017
2665.13342,-0.00048
2663.07381,-0.00061
2661.01421,-0.00068
2658.95460,-0.00014
2656.89499,0.00058
2654.83538,0.00051
2652.77577,0.00009
2650.71616,-0.00021
2648.65655,-0.00049
2646.59695,-0.00052
2644.53734,-0.00043
2642.47773,-0.00071
2640.41812,-0.00089
2638.35851,-0.00037
2636.29890,0.00039
2634.23929,0.00078
2632.17969,0.00071
2630.12008,0.00042
2628.06047,0.00027
2626.00086,0.00021
2623.94125,0.00020
2621.88164,0.00022
2619.82203,0.00018
2617.76243,0.00051
2615.70282,0.00127
2613.64321,0.00182
2611.58360,0.00183
2609.52399,0.00155
2607.46438,0.00135
2605.40478,0.00129
2603.34517,0.00138
2601.28556,0.00169
2599.22595,0.00173
2597.16634,0.00144
2595.10673,0.00142
2593.04712,0.00166
2590.98752,0.00193
2588.92791,0.00196
2586.86830,0.00179
2584.80869,0.00180
2582.74908,0.00199
2580.68947,0.00193
2578.62986,0.00158
2576.57026,0.00138
2574.51065,0.00159
2572.45104,0.00195
2570.39143,0.00211
2568.33182,0.00199
2566.27221,0.00182
2564.21260,0.00198
2562.15300,0.00242
2560.09339,0.00293
2558.03378,0.00318
2555.97417,0.00283
2553.91456,0.00248
2551.85495,0.00265
2549.79535,0.00271
2547.73574,0.00279
2545.67613,0.00345
2543.61652,0.00392
2541.55691,0.00376
2539.49730,0.00345
2537.43769,0.00355
2535.37809,0.00377
2533.31848,0.00320
2531.25887,0.00270
2529.19926,0.00345
2527.13965,0.00440
2525.08004,0.00469
2523.02043,0.00459
2520.96083,0.00428
2518.90122,0.00422
2516.84161,0.00448
2514.78200,0.00416
2512.72239,0.00334
2510.66278,0.00314
2508.60317,0.00339
2506.54357,0.00339
2504.48396,0.00323
2502.42435,0.00349
2500.36474,0.00401
2498.30513,0.00416
2496.24552,0.00432
2494.18592,0.00452
2492.12631,0.00435
2490.06670,0.00405
2488.00709,0.00357
2485.94748,0.00310
2483.88787,0.00313
2481.82826,0.00324
2479.76866,0.00313
2477.70905,0.00302
2475.64944,0.00292
2473.58983,0.00306
2471.53022,0.00368
2469.47061,0.00445
2467.41100,0.00457
2465.35140,0.00385
2463.29179,0.00304
2461.23218,0.00243
2459.17257,0.00188
2457.11296,0.00176
2455.05335,0.00198
2452.99374,0.00215
2450.93414,0.00256
2448.87453,0.00304
2446.81492,0.00294
2444.75531,0.00242
2442.69570,0.00211
2440.63609,0.00196
2438.57649,0.00171
2436.51688,0.00148
2434.45727,0.00126
2432.39766,0.00121
2430.33805,0.00151
2428.27844,0.00172
2426.21883,0.00125
2424.15923,0.00031
2422.09962,-0.00023
2420.04001,0.00009
2417.98040,0.00111
2415.92079,0.00203
2413.86118,0.00192
2411.80157,0.00109
2409.74197,0.00072
2407.68236,0.00070
2405.62275,0.00042
2403.56314,0.00017
2401.50353,0.00019
2399.44392,0.00042
2397.38431,0.00063
2395.32471,0.00066
2393.26510,0.00064
2391.20549,0.00053
2389.14588,0.00039
2387.08627,0.00042
2385.02666,0.00023
2382.96706,-0.00025
2380.90745,-0.00050
2378.84784,-0.00054
2376.78823,-0.00041
2374.72862,-0.00004
2372.66901,0.00041
2370.60940,0.00064
2368.54980,0.00031
2366.49019,-0.00003
2364.43058,0.00016
2362.37097,0.00002
2360.31136,-0.00041
2358.25175,-0.00045
2356.19214,-0.00045
2354.13254,-0.00040
2352.07293,-0.00037
2350.01332,-0.00047
2347.95371,-0.00062
2345.89410,-0.00110
2343.83449,-0.00166
2341.77488,-0.00170
2339.71528,-0.00150
2337.65567,-0.00105
2335.59606,-0.00062
2333.53645,-0.00056
2331.47684,-0.00026
2329.41723,0.00001
2327.35763,-0.00082
2325.29802,-0.00216
2323.23841,-0.00251
2321.17880,-0.00198
2319.11919,-0.00176
2317.05958,-0.00177
2314.99997,-0.00174
2312.94037,-0.00217
2310.88076,-0.00259
2308.82115,-0.00227
2306.76154,-0.00161
2304.70193,-0.00130
2302.64232,-0.00123
2300.58271,-0.00117
2298.52311,-0.00151
2296.46350,-0.00186
2294.40389,-0.00176
2292.34428,-0.00173
2290.28467,-0.00193
2288.22506,-0.00204
2286.16545,-0.00216
2284.10585,-0.00201
2282.04624,-0.00129
2279.98663,-0.00109
2277.92702,-0.00166
2275.86741,-0.00186
2273.80780,-0.00187
2271.74820,-0.00255
2269.68859,-0.00354
2267.62898,-0.00407
2265.56937,-0.00382
2263.50976,-0.00256
2261.45015,-0.00095
2259.39054,-0.00028
2257.33094,-0.00069
2255.27133,-0.00113
2253.21172,-0.00098
2251.15211,-0.00102
2249.09250,-0.00220
2247.03289,-0.00328
2244.97328,-0.00276
2242.91368,-0.00228
2240.85407,-0.00256
2238.79446,-0.00221
2236.73485,-0.00197
2234.67524,-0.00250
2232.61563,-0.00279
2230.55602,-0.00258
2228.49642,-0.00216
2226.43681,-0.00136
2224.37720,-0.00089
2222.31759,-0.00164
2220.25798,-0.00269
2218.19837,-0.00333
2216.13877,-0.00366
2214.07916,-0.00349
2212.01955,-0.00292
2209.95994,-0.00252
2207.90033,-0.00189
2205.84072,-0.00076
2203.78111,-0.00008
2201.72151,-0.00040
2199.66190,-0.00153
2197.60229,-0.00221
2195.54268,-0.00185
2193.48307,-0.00163
2191.42346,-0.00187
2189.36385,-0.00153
2187.30425,-0.00093
2185.24464,-0.00123
2183.18503,-0.00205
2181.12542,-0.00307
2179.06581,-0.00413
2177.00620,-0.00491
2174.94659,-0.00505
2172.88699,-0.00475
2170.82738,-0.00425
2168.76777,-0.00295
2166.70816,-0.00155
2164.64855,-0.00139
2162.58894,-0.00216
2160.52934,-0.00283
2158.46973,-0.00386
2156.41012,-0.00559
2154.35051,-0.00684
2152.29090,-0.00713
2150.23129,-0.00608
2148.17168,-0.00428
2146.11208,-0.00291
2144.05247,-0.00168
2141.99286,-0.00134
2139.93325,-0.00266
2137.87364,-0.00350
2135.81403,-0.00283
2133.75442,-0.00255
2131.69482,-0.00358
2129.63521,-0.00478
2127.57560,-0.00490
2125.51599,-0.00407
2123.45638,-0.00328
2121.39677,-0.00275
2119.33716,-0.00248
2117.27756,-0.00265
2115.21795,-0.00294
2113.15834,-0.00323
2111.09873,-0.00346
2109.03912,-0.00324
2106.97951,-0.00301
2104.91991,-0.00311
2102.86030,-0.00298
2100.80069,-0.00282
2098.74108,-0.00313
2096.68147,-0.00336
2094.62186,-0.00301
2092.56225,-0.00241
2090.50265,-0.00206
2088.44304,-0.00212
2086.38343,-0.00285
2084.32382,-0.00339
2082.26421,-0.00342
2080.20460,-0.00381
2078.14499,-0.00343
2076.08539,-0.00183
2074.02578,-0.00065
2071.96617,-0.00054
2069.90656,-0.00114
2067.84695,-0.00208
2065.78734,-0.00280
2063.72773,-0.00258
2061.66813,-0.00169
2059.60852,-0.00094
2057.54891,-0.00112
2055.48930,-0.00149
2053.42969,-0.00070
2051.37008,-0.00054
2049.31048,-0.00224
2047.25087,-0.00360
2045.19126,-0.00352
2043.13165,-0.00262
2041.07204,-0.00193
2039.01243,-0.00255
2036.95282,-0.00316
2034.89322,-0.00273
2032.83361,-0.00214
2030.77400,-0.00183
2028.71439,-0.00164
2026.65478,-0.00082
2024.59517,0.00054
2022.53556,0.00066
2020.47596,-0.00023
2018.41635,0.00030
2016.35674,0.00062
2014.29713,-0.00119
2012.23752,-0.00219
2010.17791,-0.00164
2008.11830,-0.00139
2006.05870,-0.00124
2003.99909,-0.00129
2001.93948,-0.00188
1999.87987,-0.00226
1997.82026,-0.00216
1995.76065,-0.00220
1993.70105,-0.00223
1991.64144,-0.00190
1989.58183,-0.00164
1987.52222,-0.00095
1985.46261,-0.00011
1983.40300,0.00028
1981.34339,0.00013
1979.28379,-0.00039
1977.22418,-0.00053
1975.16457,-0.00068
1973.10496,-0.00027
1971.04535,0.00104
1968.98574,0.00159
1966.92613,0.00041
1964.86653,-0.00082
1962.80692,-0.00057
1960.74731,-0.00009
1958.68770,-0.00010
1956.62809,-0.00013
1954.56848,-0.00009
1952.50887,0.00022
1950.44927,0.00031
1948.38966,0.00007
1946.33005,0.00015
1944.27044,0.00021
1942.21083,-0.00001
1940.15122,-0.00058
1938.09162,-0.00126
1936.03201,-0.00131
1933.97240,-0.00102
1931.91279,-0.00095
1929.85318,-0.00078
1927.79357,-0.00029
1925.73396,-0.00004
1923.67436,-0.00046
1921.61475,-0.00099
1919.55514,-0.00110
1917.49553,-0.00112
1915.43592,-0.00092
1913.37631,-0.00047
1911.31670,-0.00041
1909.25710,-0.00070
1907.19749,-0.00084
1905.13788,-0.00062
1903.07827,-0.00005
1901.01866,0.00046
1898.95905,0.00044
1896.89944,-0.00014
1894.83984,-0.00048
1892.78023,-0.00034
1890.72062,-0.00044
1888.66101,-0.00058
1886.60140,-0.00028
1884.54179,0.00002
1882.48219,-0.00009
1880.42258,-0.00041
1878.36297,-0.00065
1876.30336,-0.00076
1874.24375,-0.00089
1872.18414,-0.00133
1870.12453,-0.00185
1868.06493,-0.00190
1866.00532,-0.00146
1863.94571,-0.00109
1861.88610,-0.00096
1859.82649,-0.00096
1857.76688,-0.00093
1855.70727,-0.00064
1853.64767,-0.00033
1851.58806,-0.00020
1849.52845,-0.00005
1847.46884,0.00022
1845.40923,0.00032
1843.34962,-0.00014
1841.29002,-0.00064
1839.23041,-0.00075
1837.17080,-0.00071
1835.11119,-0.00065
1833.05158,-0.00043
1830.99197,-0.00021
1828.93236,-0.00029
1826.87276,-0.00060
1824.81315,-0.00082
1822.75354,-0.00063
1820.69393,-0.00052
1818.63432,-0.00078
1816.57471,-0.00105
1814.51510,-0.00108
1812.45550,-0.00072
1810.39589,-0.00031
1808.33628,-0.00042
1806.27667,-0.00075
1804.21706,-0.00094
1802.15745,-0.00103
1800.09784,-0.00105
1798.03824,-0.00107
1795.97863,-0.00115
1793.91902,-0.00112
1791.85941,-0.00093
1789.79980,-0.00088
1787.74019,-0.00110
1785.68059,-0.00139
1783.62098,-0.00141
1781.56137,-0.00127
1779.50176,-0.00128
1777.44215,-0.00152
1775.38254,-0.00179
1773.32293,-0.00181
1771.26333,-0.00164
1769.20372,-0.00164
1767.14411,-0.00166
1765.08450,-0.00165
1763.02489,-0.00176
1760.96528,-0.00203
1758.90567,-0.00234
1756.84607,-0.00248
1754.78646,-0.00237
1752.72685,-0.00232
1750.66724,-0.00242
1748.60763,-0.00233
1746.54802,-0.00228
1744.48841,-0.00246
1742.42881,-0.00260
1740.36920,-0.00256
1738.30959,-0.00254
1736.24998,-0.00261
1734.19037,-0.00269
1732.13076,-0.00279
1730.07116,-0.00300
1728.01155,-0.00329
1725.95194,-0.00350
1723.89233,-0.00354
1721.83272,-0.00364
1719.77311,-0.00386
1717.71350,-0.00399
1715.65390,-0.00391
1713.59429,-0.00395
1711.53468,-0.00415
1709.47507,-0.00448
1707.41546,-0.00478
1705.35585,-0.00485
1703.29624,-0.00498
1701.23664,-0.00505
1699.17703,-0.00436
1697.11742,-0.00349
1695.05781,-0.00320
1692.99820,-0.00337
1690.93859,-0.00311
1688.87898,-0.00248
1686.81938,-0.00219
1684.75977,-0.00143
1682.70016,0.00025
1680.64055,0.00086
1678.58094,0.00117
1676.52133,0.00184
1674.46173,0.00265
1672.40212,0.00293
1670.34251,0.00354
1668.28290,0.00513
1666.22329,0.00620
1664.16368,0.00694
1662.10407,0.00825
1660.04447,0.00958
1657.98486,0.01022
1655.92525,0.01028
1653.86564,0.01062
1651.80603,0.01144
1649.74642,0.01072
1647.68681,0.00979
1645.62721,0.00912
1643.56760,0.00819
1641.50799,0.00713
1639.44838,0.00619
1637.38877,0.00527
1635.32916,0.00397
1633.26955,0.00252
1631.20995,0.00140
1629.15034,0.00032
1627.09073,-0.00072
1625.03112,-0.00153
1622.97151,-0.00231
1620.91190,-0.00278
1618.85230,-0.00306
1616.79269,-0.00377
1614.73308,-0.00431
1612.67347,-0.00442
1610.61386,-0.00464
1608.55425,-0.00489
1606.49464,-0.00518
1604.43504,-0.00545
1602.37543,-0.00549
1600.31582,-0.00535
1598.25621,-0.00519
1596.19660,-0.00501
1594.13699,-0.00476
1592.07738,-0.00439
1590.01778,-0.00405
1587.95817,-0.00372
1585.89856,-0.00316
1583.83895,-0.00246
1581.77934,-0.00187
1579.71973,-0.00132
1577.66012,-0.00060
1575.60052,0.00039
1573.54091,0.00126
1571.48130,0.00202
1569.42169,0.00306
1567.36208,0.00435
1565.30247,0.00553
1563.24287,0.00640
1561.18326,0.00706
1559.12365,0.00851
1557.06404,0.01086
1555.00443,0.01261
1552.94482,0.01430
1550.88521,0.01589
1548.82561,0.01707
1546.76600,0.01799
1544.70639,0.01875
1542.64678,0.01898
1540.58717,0.01853
1538.52756,0.01784
1536.46795,0.01720
1534.40835,0.01612
1532.34874,0.01463
1530.28913,0.01343
1528.22952,0.01228
1526.16991,0.01100
1524.11030,0.01011
1522.05069,0.00966
1519.99109,0.00917
1517.93148,0.00850
1515.87187,0.00776
1513.81226,0.00704
1511.75265,0.00630
1509.69304,0.00560
1507.63344,0.00480
1505.57383,0.00387
1503.51422,0.00326
1501.45461,0.00287
1499.39500,0.00257
1497.33539,0.00236
1495.27578,0.00220
1493.21618,0.00190
1491.15657,0.00142
1489.09696,0.00097
1487.03735,0.00085
1484.97774,0.00104
1482.91813,0.00146
1480.85852,0.00188
1478.79892,0.00231
1476.73931,0.00284
1474.67970,0.00330
1472.62009,0.00377
1470.56048,0.00418
1468.50087,0.00435
1466.44126,0.00440
1464.38166,0.00452
1462.32205,0.00480
1460.26244,0.00506
1458.20283,0.00519
1456.14322,0.00524
1454.08361,0.00517
1452.02401,0.00497
1449.96440,0.00467
1447.90479,0.00435
1445.84518,0.00416
1443.78557,0.00411
1441.72596,0.00402
1439.66635,0.00377
1437.60675,0.00347
1435.54714,0.00327
1433.48753,0.00316
1431.42792,0.00300
1429.36831,0.00271
1427.30870,0.00244
1425.24909,0.00251
1423.18949,0.00299
1421.12988,0.00340
1419.07027,0.00336
1417.01066,0.00311
1414.95105,0.00300
1412.89144,0.00294
1410.83183,0.00299
1408.77223,0.00305
1406.71262,0.00289
1404.65301,0.00271
1402.59340,0.00277
1400.53379,0.00298
1398.47418,0.00315
1396.41458,0.00303
1394.35497,0.00258
1392.29536,0.00226
1390.23575,0.00218
1388.17614,0.00200
1386.11653,0.00178
1384.05692,0.00172
1381.99732,0.00169
1379.93771,0.00153
1377.87810,0.00120
1375.81849,0.00075
1373.75888,0.00055
1371.69927,0.00073
1369.63966,0.00084
1367.58006,0.00069
1365.52045,0.00052
1363.46084,0.00054
1361.40123,0.00068
1359.34162,0.00083
1357.28201,0.00096
1355.22240,0.00107
1353.16280,0.00107
1351.10319,0.00095
1349.04358,0.00092
1346.98397,0.00108
1344.92436,0.00139
1342.86475,0.00163
1340.80515,0.00168
1338.74554,0.00170
1336.68593,0.00176
1334.62632,0.00173
1332.56671,0.00153
1330.50710,0.00135
1328.44749,0.00139
1326.38789,0.00160
1324.32828,0.00173
1322.26867,0.00160
1320.20906,0.00143
1318.14945,0.00160
1316.08984,0.00186
1314.03023,0.00189
1311.97063,0.00185
1309.91102,0.00183
1307.85141,0.00181
1305.79180,0.00180
1303.73219,0.00187
1301.67258,0.00200
1299.61297,0.00210
1297.55337,0.00211
1295.49376,0.00202
1293.43415,0.00189
1291.37454,0.00189
1289.31493,0.00202
1287.25532,0.00215
1285.19572,0.00217
1283.13611,0.00211
1281.07650,0.00208
1279.01689,0.00209
1276.95728,0.00204
1274.89767,0.00194
1272.83806,0.00179
1270.77846,0.00167
1268.71885,0.00170
1266.65924,0.00185
1264.59963,0.00204
1262.54002,0.00216
1260.48041,0.00221
1258.42080,0.00229
1256.36120,0.00226
1254.30159,0.00207
1252.24198,0.00202
1250.18237,0.00211
1248.12276,0.00206
1246.06315,0.00190
1244.00354,0.00184
1241.94394,0.00182
1239.88433,0.00178
1237.82472,0.00174
1235.76511,0.00169
1233.70550,0.00168
1231.64589,0.00166
1229.58629,0.00144
1227.52668,0.00110
1225.46707,0.00080
1223.40746,0.00053
1221.34785,0.00031
1219.28824,0.00019
1217.22863,0.00012
1215.16903,0.00005
1213.10942,-0.00007
1211.04981,-0.00017
1208.99020,-0.00015
1206.93059,0.00001
1204.87098,0.00010
1202.81137,-0.00006
1200.75177,-0.00028
1198.69216,-0.00038
1196.63255,-0.00041
1194.57294,-0.00043
1192.51333,-0.00057
1190.45372,-0.00075
1188.39411,-0.00071
1186.33451,-0.00050
1184.27490,-0.00037
1182.21529,-0.00030
1180.15568,-0.00016
1178.09607,0.00001
1176.03646,0.00014
1173.97686,0.00022
1171.91725,0.00019
1169.85764,0.00011
1167.79803,0.00009
1165.73842,0.00012
1163.67881,0.00020
1161.61920,0.00018
1159.55960,-0.00002
1157.49999,-0.00006
1155.44038,0.00012
1153.38077,0.00016
1151.32116,-0.00004
1149.26155,-0.00026
1147.20194,-0.00032
1145.14234,-0.00025
1143.08273,-0.00017
1141.02312,-0.00009
1138.96351,-0.00002
1136.90390,0.00002
1134.84429,0.00007
1132.78468,0.00017
1130.72508,0.00021
1128.66547,0.00015
1126.60586,0.00027
1124.54625,0.00052
1122.48664,0.00054
1120.42703,0.00042
1118.36743,0.00042
1116.30782,0.00053
1114.24821,0.00060
1112.18860,0.00067
1110.12899,0.00079
1108.06938,0.00086
1106.00977,0.00090
1103.95017,0.00098
1101.89056,0.00104
1099.83095,0.00106
1097.77134,0.00095
1095.71173,0.00064
1093.65212,0.00037
1091.59251,0.00036
1089.53291,0.00063
1087.47330,0.00096
1085.41369,0.00097
1083.35408,0.00077
1081.29447,0.00083
1079.23486,0.00105
1077.17525,0.00111
1075.11565,0.00101
1073.05604,0.00084
1070.99643,0.00068
1068.93682,0.00050
1066.87721,0.00040
1064.81760,0.00040
1062.75800,0.00027
1060.69839,0.00009
1058.63878,0.00001
1056.57917,-0.00003
1054.51956,-0.00006
1052.45995,-0.00008
1050.40034,-0.00005
1048.34074,0.00000
1046.28113,-0.00008
1044.22152,-0.00025
1042.16191,-0.00029
1040.10230,-0.00021
1038.04269,-0.00017
1035.98308,-0.00010
1033.92348,-0.00003
1031.86387,-0.00004
1029.80426,-0.00004
1027.74465,-0.00009
1025.68504,-0.00019
1023.62543,-0.00017
1021.56582,-0.00020
1019.50622,-0.00037
1017.44661,-0.00045
1015.38700,-0.00040
1013.32739,-0.00038
1011.26778,-0.00035
1009.20817,-0.00023
1007.14857,-0.00015
1005.08896,-0.00024
1003.02935,-0.00039
1000.96974,-0.00040
998.91013,-0.00038
996.85052,-0.00049
994.79091,-0.00054
992.73131,-0.00047
990.67170,-0.00049
988.61209,-0.00067
986.55248,-0.00076
984.49287,-0.00069
982.43326,-0.00080
980.37365,-0.00109
978.31405,-0.00124
976.25444,-0.00114
974.19483,-0.00087
972.13522,-0.00069
970.07561,-0.00069
968.01600,-0.00062
965.95639,-0.00062
963.89679,-0.00087
961.83718,-0.00111
959.77757,-0.00121
957.71796,-0.00122
955.65835,-0.00112
953.59874,-0.00108
951.53914,-0.00117
949.47953,-0.00123
947.41992,-0.00120
945.36031,-0.00108
943.30070,-0.00100
941.24109,-0.00111
939.18148,-0.00121
937.12188,-0.00123
935.06227,-0.00125
933.00266,-0.00128
930.94305,-0.00143
928.88344,-0.00159
926.82383,-0.00153
924.76422,-0.00138
922.70462,-0.00141
920.64501,-0.00159
918.58540,-0.00164
916.52579,-0.00161
914.46618,-0.00170
912.40657,-0.00181
910.34696,-0.00183
908.28736,-0.00182
906.22775,-0.00190
904.16814,-0.00220
902.10853,-0.00247
900.04892,-0.00251
897.98931,-0.00249
895.92971,-0.00248
893.87010,-0.00247
891.81049,-0.00251
889.75088,-0.00253
887.69127,-0.00249
885.63166,-0.00243
883.57205,-0.00239
881.51245,-0.00250
879.45284,-0.00271
877.39323,-0.00293
875.33362,-0.00308
873.27401,-0.00301
871.21440,-0.00297
869.15479,-0.00315
867.09519,-0.00332
865.03558,-0.00342
862.97597,-0.00349
860.91636,-0.00352
858.85675,-0.00353
856.79714,-0.00355
854.73753,-0.00374
852.67793,-0.00405
850.61832,-0.00420
848.55871,-0.00416
846.49910,-0.00400
844.43949,-0.00396
842.37988,-0.00403
840.32028,-0.00403
838.26067,-0.00399
836.20106,-0.00403
834.14145,-0.00424
832.08184,-0.00466
830.02223,-0.00496
827.96262,-0.00481
825.90302,-0.00457
823.84341,-0.00459
821.78380,-0.00482
819.72419,-0.00507
817.66458,-0.00515
815.60497,-0.00509
813.54536,-0.00499
811.48576,-0.00494
809.42615,-0.00510
807.36654,-0.00537
805.30693,-0.00565
803.24732,-0.00595
801.18771,-0.00606
799.12810,-0.00584
