4096.56134,-0.00128
4094.50173,-0.00131
4092.44213,-0.00072
4090.38252,-0.00010
4088.32291,-0.00017
4086.26330,-0.00053
4084.20369,-0.00037
4082.14408,-0.00016
4080.08447,-0.00050
4078.02487,-0.00109
4075.96526,-0.00160
4073.90565,-0.00155
4071.84604,-0.00126
4069.78643,-0.00125
4067.72682,-0.00099
4065.66721,-0.00071
4063.60761,-0.00079
4061.54800,-0.00088
4059.48839,-0.00112
4057.42878,-0.00124
4055.36917,-0.00092
4053.30956,-0.00081
4051.24995,-0.00082
4049.19035,-0.00065
4047.13074,-0.00091
4045.07113,-0.00128
4043.01152,-0.00092
4040.95191,-0.00042
4038.89230,-0.00080
4036.83270,-0.00138
4034.77309,-0.00115
4032.71348,-0.00083
4030.65387,-0.00106
4028.59426,-0.00148
4026.53465,-0.00159
4024.47504,-0.00160
4022.41544,-0.00202
4020.35583,-0.00236
4018.29622,-0.00204
4016.23661,-0.00185
4014.17700,-0.00232
4012.11739,-0.00273
4010.05778,-0.00257
4007.99818,-0.00214
4005.93857,-0.00177
4003.87896,-0.00148
4001.81935,-0.00154
3999.75974,-0.00223
3997.70013,-0.00275
3995.64052,-0.00221
3993.58092,-0.00124
3991.52131,-0.00106
3989.46170,-0.00128
3987.40209,-0.00141
3985.34248,-0.00169
3983.28287,-0.00196
3981.22327,-0.00180
3979.16366,-0.00174
3977.10405,-0.00212
3975.04444,-0.00199
3972.98483,-0.00129
3970.92522,-0.00091
3968.86561,-0.00100
3966.80601,-0.00108
3964.74640,-0.00112
3962.68679,-0.00119
3960.62718,-0.00068
3958.56757,-0.00019
3956.50796,-0.00049
3954.44835,-0.00126
3952.38875,-0.00200
3950.32914,-0.00244
3948.26953,-0.00232
3946.20992,-0.00191
3944.15031,-0.00265
3942.09070,-0.00267
3940.03109,-0.00104
3937.97149,-0.00016
3935.91188,-0.00045
3933.85227,-0.00176
3931.79266,-0.00236
3929.73305,-0.00101
3927.67344,-0.00008
3925.61384,-0.00091
3923.55423,-0.00129
3921.49462,-0.00120
3919.43501,-0.00215
3917.37540,-0.00310
3915.31579,-0.00246
3913.25618,-0.00148
3911.19658,-0.00094
3909.13697,-0.00012
3907.07736,-0.00033
3905.01775,-0.00189
3902.95814,-0.00204
3900.89853,-0.00123
3898.83892,-0.00019
3896.77932,0.00162
3894.71971,0.00151
3892.66010,-0.00068
3890.60049,-0.00048
3888.54088,0.00063
3886.48127,-0.00140
3884.42166,-0.00126
3882.36206,-0.00062
3880.30245,-0.00123
3878.24284,0.00038
3876.18323,0.00028
3874.12362,-0.00067
3872.06401,-0.00098
3870.00441,-0.00166
3867.94480,0.00032
3865.88519,0.00014
3863.82558,-0.00137
3861.76597,-0.00056
3859.70636,0.00144
3857.64675,0.00237
3855.58715,-0.00134
3853.52754,-0.00459
3851.46793,-0.00038
3849.40832,0.00243
3847.34871,0.00145
3845.28910,0.00008
3843.22949,0.00016
3841.16989,0.00051
3839.11028,-0.00102
3837.05067,-0.00143
3834.99106,-0.00023
3832.93145,-0.00052
3830.87184,-0.00067
3828.81223,-0.00034
3826.75263,-0.00007
3824.69302,0.00060
3822.63341,-0.00157
3820.57380,-0.00163
3818.51419,0.00059
3816.45458,-0.00135
3814.39498,-0.00068
3812.33537,0.00150
3810.27576,0.00059
3808.21615,-0.00186
3806.15654,-0.00043
3804.09693,0.00154
3802.03732,-0.00127
3799.97772,-0.00121
3797.91811,-0.00061
3795.85850,-0.00165
3793.79889,-0.00135
3791.73928,-0.00156
3789.67967,-0.00215
3787.62006,-0.00234
3785.56046,-0.00178
3783.50085,-0.00029
3781.44124,-0.00044
3779.38163,-0.00186
3777.32202,-0.00139
3775.26241,-0.00102
3773.20280,-0.00202
3771.14320,-0.00342
3769.08359,-0.00271
3767.02398,-0.00119
3764.96437,-0.00027
3762.90476,0.00037
3760.84515,-0.00125
3758.78555,-0.00187
3756.72594,0.00019
3754.66633,0.00042
3752.60672,-0.00265
3750.54711,-0.00281
3748.48750,0.00186
3746.42789,0.00102
3744.36829,-0.00323
3742.30868,-0.00022
3740.24907,0.00182
3738.18946,-0.00045
3736.12985,-0.00240
3734.07024,-0.00161
3732.01063,0.00004
3729.95103,0.00142
3727.89142,0.00002
3725.83181,-0.00215
3723.77220,-0.00270
3721.71259,-0.00272
3719.65298,-0.00181
3717.59337,0.00003
3715.53377,0.00082
3713.47416,-0.00131
3711.41455,-0.00265
3709.35494,-0.00086
3707.29533,0.00095
3705.23572,0.00076
3703.17612,-0.00137
3701.11651,-0.00226
3699.05690,-0.00098
3696.99729,-0.00003
3694.93768,0.00100
3692.87807,0.00120
3690.81846,-0.00058
3688.75886,-0.00179
3686.69925,0.00007
3684.63964,0.00110
3682.58003,0.00049
3680.52042,0.00034
3678.46081,-0.00053
3676.40120,-0.00286
3674.34160,-0.00080
3672.28199,0.00046
3670.22238,-0.00250
3668.16277,-0.00040
3666.10316,0.00290
3664.04355,0.00289
3661.98394,0.00212
3659.92434,0.00154
3657.86473,0.00002
3655.80512,0.00080
3653.74551,0.00405
3651.68590,0.00273
3649.62629,-0.00019
3647.56669,0.00095
3645.50708,0.00346
3643.44747,0.00384
3641.38786,0.00299
3639.32825,0.00271
3637.26864,0.00286
3635.20903,0.00345
3633.14943,0.00491
3631.08982,0.00409
3629.03021,0.00181
3626.97060,0.00458
3624.91099,0.00720
3622.85138,0.00619
3620.79177,0.00350
3618.73217,0.00285
3616.67256,0.00482
3614.61295,0.00546
3612.55334,0.00563
3610.49373,0.00598
3608.43412,0.00576
3606.37451,0.00679
3604.31491,0.00731
3602.25530,0.00593
3600.19569,0.00503
3598.13608,0.00555
3596.07647,0.00602
3594.01686,0.00700
3591.95726,0.00857
3589.89765,0.00805
3587.83804,0.00668
3585.77843,0.00813
3583.71882,0.00987
3581.65921,0.00958
3579.59960,0.00898
3577.54000,0.00906
3575.48039,0.00941
3573.42078,0.01027
3571.36117,0.01112
3569.30156,0.01013
3567.24195,0.00891
3565.18234,0.01003
3563.12274,0.01096
3561.06313,0.01102
3559.00352,0.01162
3556.94391,0.01238
3554.88430,0.01251
3552.82469,0.01223
3550.76508,0.01251
3548.70548,0.01263
3546.64587,0.01220
3544.58626,0.01256
3542.52665,0.01355
3540.46704,0.01418
3538.40743,0.01396
3536.34783,0.01343
3534.28822,0.01363
3532.22861,0.01405
3530.16900,0.01401
3528.10939,0.01385
3526.04978,0.01406
3523.99017,0.01443
3521.93057,0.01485
3519.87096,0.01479
3517.81135,0.01422
3515.75174,0.01436
3513.69213,0.01529
3511.63252,0.01562
3509.57291,0.01513
3507.51331,0.01512
3505.45370,0.01494
3503.39409,0.01474
3501.33448,0.01571
3499.27487,0.01617
3497.21526,0.01558
3495.15565,0.01550
3493.09605,0.01589
3491.03644,0.01616
3488.97683,0.01643
3486.91722,0.01678
3484.85761,0.01701
3482.79800,0.01675
3480.73840,0.01661
3478.67879,0.01663
3476.61918,0.01650
3474.55957,0.01668
3472.49996,0.01701
3470.44035,0.01680
3468.38074,0.01621
3466.32114,0.01605
3464.26153,0.01630
3462.20192,0.01633
3460.14231,0.01635
3458.08270,0.01648
3456.02309,0.01643
3453.96348,0.01622
3451.90388,0.01639
3449.84427,0.01660
3447.78466,0.01625
3445.72505,0.01642
3443.66544,0.01700
3441.60583,0.01734
3439.54622,0.01754
3437.48662,0.01736
3435.42701,0.01693
3433.36740,0.01649
3431.30779,0.01638
3429.24818,0.01660
3427.18857,0.01711
3425.12897,0.01731
3423.06936,0.01647
3421.00975,0.01555
3418.95014,0.01557
3416.89053,0.01576
3414.83092,0.01592
3412.77131,0.01634
3410.71171,0.01642
3408.65210,0.01593
3406.59249,0.01576
3404.53288,0.01650
3402.47327,0.01728
3400.41366,0.01716
3398.35405,0.01656
3396.29445,0.01647
3394.23484,0.01670
3392.17523,0.01682
3390.11562,0.01674
3388.05601,0.01625
3385.99640,0.01563
3383.93679,0.01539
3381.87719,0.01552
3379.81758,0.01550
3377.75797,0.01519
3375.69836,0.01511
3373.63875,0.01545
3371.57914,0.01597
3369.51954,0.01626
3367.45993,0.01617
3365.40032,0.01612
3363.34071,0.01600
3361.28110,0.01565
3359.22149,0.01539
3357.16188,0.01507
3355.10228,0.01465
3353.04267,0.01460
3350.98306,0.01502
3348.92345,0.01553
3346.86384,0.01566
3344.80423,0.01529
3342.74462,0.01462
3340.68502,0.01414
3338.62541,0.01405
3336.56580,0.01385
3334.50619,0.01346
3332.44658,0.01327
3330.38697,0.01305
3328.32736,0.01260
3326.26776,0.01229
3324.20815,0.01244
3322.14854,0.01295
3320.08893,0.01348
3318.02932,0.01386
3315.96971,0.01410
3313.91011,0.01410
3311.85050,0.01356
3309.79089,0.01273
3307.73128,0.01236
3305.67167,0.01257
3303.61206,0.01291
3301.55245,0.01308
3299.49285,0.01308
3297.43324,0.01314
3295.37363,0.01324
3293.31402,0.01317
3291.25441,0.01295
3289.19480,0.01277
3287.13519,0.01274
3285.07559,0.01276
3283.01598,0.01248
3280.95637,0.01182
3278.89676,0.01141
3276.83715,0.01176
3274.77754,0.01235
3272.71793,0.01237
3270.65833,0.01209
3268.59872,0.01188
3266.53911,0.01159
3264.47950,0.01125
3262.41989,0.01106
3260.36028,0.01124
3258.30068,0.01155
3256.24107,0.01146
3254.18146,0.01119
3252.12185,0.01102
3250.06224,0.01089
3248.00263,0.01076
3245.94302,0.01063
3243.88342,0.01067
3241.82381,0.01065
3239.76420,0.01035
3237.70459,0.01020
3235.64498,0.01025
3233.58537,0.00994
3231.52576,0.00936
3229.46616,0.00917
3227.40655,0.00936
3225.34694,0.00954
3223.28733,0.00957
3221.22772,0.00942
3219.16811,0.00914
3217.10850,0.00881
3215.04890,0.00854
3212.98929,0.00848
3210.92968,0.00842
3208.87007,0.00842
3206.81046,0.00868
3204.75085,0.00879
3202.69125,0.00846
3200.63164,0.00825
3198.57203,0.00864
3196.51242,0.00912
3194.45281,0.00911
3192.39320,0.00868
3190.33359,0.00823
3188.27399,0.00801
3186.21438,0.00803
3184.15477,0.00821
3182.09516,0.00820
3180.03555,0.00774
3177.97594,0.00732
3175.91633,0.00731
3173.85673,0.00729
3171.79712,0.00710
3169.73751,0.00715
3167.67790,0.00774
3165.61829,0.00830
3163.55868,0.00830
3161.49907,0.00792
3159.43947,0.00739
3157.37986,0.00694
3155.32025,0.00675
3153.26064,0.00689
3151.20103,0.00705
3149.14142,0.00695
3147.08182,0.00693
3145.02221,0.00707
3142.96260,0.00712
3140.90299,0.00693
3138.84338,0.00658
3136.78377,0.00635
3134.72416,0.00640
3132.66456,0.00680
3130.60495,0.00727
3128.54534,0.00734
3126.48573,0.00700
3124.42612,0.00634
3122.36651,0.00592
3120.30690,0.00603
3118.24730,0.00615
3116.18769,0.00619
3114.12808,0.00634
3112.06847,0.00674
3110.00886,0.00744
3107.94925,0.00790
3105.88965,0.00785
3103.83004,0.00775
3101.77043,0.00779
3099.71082,0.00789
3097.65121,0.00799
3095.59160,0.00847
3093.53199,0.00942
3091.47239,0.01017
3089.41278,0.01066
3087.35317,0.01154
3085.29356,0.01278
3083.23395,0.01383
3081.17434,0.01484
3079.11473,0.01587
3077.05513,0.01649
3074.99552,0.01686
3072.93591,0.01714
3070.87630,0.01700
3068.81669,0.01634
3066.75708,0.01554
3064.69747,0.01498
3062.63787,0.01461
3060.57826,0.01428
3058.51865,0.01416
3056.45904,0.01461
3054.39943,0.01564
3052.33982,0.01694
3050.28022,0.01848
3048.22061,0.02048
3046.16100,0.02287
3044.10139,0.02558
3042.04178,0.02849
3039.98217,0.03117
3037.92256,0.03340
3035.86296,0.03534
3033.80335,0.03715
3031.74374,0.03884
3029.68413,0.04037
3027.62452,0.04164
3025.56491,0.04256
3023.50530,0.04345
3021.44570,0.04468
3019.38609,0.04605
3017.32648,0.04763
3015.26687,0.04969
3013.20726,0.05183
3011.14765,0.05369
3009.08804,0.05537
3007.02844,0.05670
3004.96883,0.05752
3002.90922,0.05833
3000.84961,0.05959
2998.79000,0.06127
2996.73039,0.06319
2994.67079,0.06544
2992.61118,0.06810
2990.55157,0.07108
2988.49196,0.07399
2986.43235,0.07638
2984.37274,0.07854
2982.31313,0.08062
2980.25353,0.08270
2978.19392,0.08524
2976.13431,0.08835
2974.07470,0.09234
2972.01509,0.09755
2969.95548,0.10356
2967.89587,0.11047
2965.83627,0.11875
2963.77666,0.12789
2961.71705,0.13715
2959.65744,0.14634
2957.59783,0.15472
2955.53822,0.16130
2953.47861,0.16601
2951.41901,0.16970
2949.35940,0.17421
2947.29979,0.18104
2945.24018,0.19020
2943.18057,0.20133
2941.12096,0.21392
2939.06136,0.22758
2937.00175,0.24241
2934.94214,0.25839
2932.88253,0.27512
2930.82292,0.29196
2928.76331,0.30903
2926.70370,0.32751
2924.64410,0.34828
2922.58449,0.37106
2920.52488,0.39408
2918.46527,0.41146
2916.40566,0.41094
2914.34605,0.38481
2912.28644,0.34415
2910.22684,0.30676
2908.16723,0.27895
2906.10762,0.25800
2904.04801,0.24058
2901.98840,0.22495
2899.92879,0.21032
2897.86918,0.19639
2895.80958,0.18313
2893.74997,0.17045
2891.69036,0.15831
2889.63075,0.14736
2887.57114,0.13797
2885.51153,0.12965
2883.45193,0.12235
2881.39232,0.11691
2879.33271,0.11389
2877.27310,0.11300
2875.21349,0.11346
2873.15388,0.11401
2871.09427,0.11375
2869.03467,0.11365
2866.97506,0.11575
2864.91545,0.12100
2862.85584,0.12930
2860.79623,0.14009
2858.73662,0.15281
2856.67701,0.16812
2854.61741,0.18843
2852.55780,0.21618
2850.49819,0.24401
2848.43858,0.25033
2846.37897,0.22653
2844.31936,0.19174
2842.25975,0.16254
2840.20015,0.13984
2838.14054,0.12069
2836.08093,0.10345
2834.02132,0.08749
2831.96171,0.07295
2829.90210,0.06035
2827.84250,0.04983
2825.78289,0.04127
2823.72328,0.03482
2821.66367,0.03025
2819.60406,0.02680
2817.54445,0.02410
2815.48484,0.02206
2813.42524,0.02035
2811.36563,0.01873
2809.30602,0.01729
2807.24641,0.01630
2805.18680,0.01562
2803.12719,0.01489
2801.06758,0.01421
2799.00798,0.01358
2796.94837,0.01282
2794.88876,0.01200
2792.82915,0.01140
2790.76954,0.01117
2788.70993,0.01094
2786.65032,0.01036
2784.59072,0.00963
2782.53111,0.00906
2780.47150,0.00865
2778.41189,0.00823
2776.35228,0.00788
2774.29267,0.00764
2772.23307,0.00743
2770.17346,0.00732
2768.11385,0.00724
2766.05424,0.00699
2763.99463,0.00661
2761.93502,0.00633
2759.87541,0.00615
2757.81581,0.00606
2755.75620,0.00626
2753.69659,0.00665
2751.63698,0.00669
2749.57737,0.00620
2747.51776,0.00572
2745.45815,0.00561
2743.39855,0.00555
2741.33894,0.00529
2739.27933,0.00515
2737.21972,0.00531
2735.16011,0.00528
2733.10050,0.00492
2731.04089,0.00479
2728.98129,0.00509
2726.92168,0.00535
2724.86207,0.00525
2722.80246,0.00495
2720.74285,0.00474
2718.68324,0.00463
2716.62364,0.00464
2714.56403,0.00484
2712.50442,0.00503
2710.44481,0.00503
2708.38520,0.00484
2706.32559,0.00454
2704.26598,0.00436
2702.20638,0.00426
2700.14677,0.00419
2698.08716,0.00423
2696.02755,0.00427
2693.96794,0.00427
2691.90833,0.00429
2689.84872,0.00432
2687.78912,0.00440
2685.72951,0.00446
2683.66990,0.00448
2681.61029,0.00462
2679.55068,0.00480
2677.49107,0.00478
2675.43146,0.00475
2673.37186,0.00488
2671.31225,0.00488
2669.25264,0.00470
2667.19303,0.00473
2665.13342,0.00491
2663.07381,0.00498
2661.01421,0.00497
2658.95460,0.00490
2656.89499,0.00482
2654.83538,0.00489
2652.77577,0.00490
2650.71616,0.00483
2648.65655,0.00477
2646.59695,0.00465
2644.53734,0.00454
2642.47773,0.00460
2640.41812,0.00473
2638.35851,0.00479
2636.29890,0.00473
2634.23929,0.00459
2632.17969,0.00453
2630.12008,0.00444
2628.06047,0.00419
2626.00086,0.00403
2623.94125,0.00410
2621.88164,0.00412
2619.82203,0.00399
2617.76243,0.00377
2615.70282,0.00363
2613.64321,0.00355
2611.58360,0.00334
2609.52399,0.00305
2607.46438,0.00276
2605.40478,0.00268
2603.34517,0.00302
2601.28556,0.00337
2599.22595,0.00330
2597.16634,0.00309
2595.10673,0.00324
2593.04712,0.00337
2590.98752,0.00305
2588.92791,0.00254
2586.86830,0.00229
2584.80869,0.00230
2582.74908,0.00223
2580.68947,0.00208
2578.62986,0.00206
2576.57026,0.00207
2574.51065,0.00191
2572.45104,0.00180
2570.39143,0.00191
2568.33182,0.00194
2566.27221,0.00189
2564.21260,0.00199
2562.15300,0.00201
2560.09339,0.00180
2558.03378,0.00143
2555.97417,0.00119
2553.91456,0.00143
2551.85495,0.00173
2549.79535,0.00181
2547.73574,0.00187
2545.67613,0.00183
2543.61652,0.00182
2541.55691,0.00185
2539.49730,0.00183
2537.43769,0.00175
2535.37809,0.00164
2533.31848,0.00190
2531.25887,0.00232
2529.19926,0.00231
2527.13965,0.00218
2525.08004,0.00231
2523.02043,0.00222
2520.96083,0.00175
2518.90122,0.00164
2516.84161,0.00189
2514.78200,0.00198
2512.72239,0.00195
2510.66278,0.00198
2508.60317,0.00181
2506.54357,0.00134
2504.48396,0.00093
2502.42435,0.00083
2500.36474,0.00112
2498.30513,0.00154
2496.24552,0.00168
2494.18592,0.00157
2492.12631,0.00147
2490.06670,0.00135
2488.00709,0.00112
2485.94748,0.00078
2483.88787,0.00046
2481.82826,0.00056
2479.76866,0.00090
2477.70905,0.00075
2475.64944,0.00046
2473.58983,0.00078
2471.53022,0.00133
2469.47061,0.00136
2467.41100,0.00090
2465.35140,0.00057
2463.29179,0.00052
2461.23218,0.00056
2459.17257,0.00078
2457.11296,0.00126
2455.05335,0.00176
2452.99374,0.00203
2450.93414,0.00209
2448.87453,0.00187
2446.81492,0.00154
2444.75531,0.00140
2442.69570,0.00122
2440.63609,0.00098
2438.57649,0.00116
2436.51688,0.00142
2434.45727,0.00126
2432.39766,0.00128
2430.33805,0.00166
2428.27844,0.00153
2426.21883,0.00098
2424.15923,0.00079
2422.09962,0.00097
2420.04001,0.00114
2417.98040,0.00094
2415.92079,0.00047
2413.86118,0.00033
2411.80157,0.00064
2409.74197,0.00080
2407.68236,0.00055
2405.62275,0.00040
2403.56314,0.00058
2401.50353,0.00088
2399.44392,0.00108
2397.38431,0.00104
2395.32471,0.00081
2393.26510,0.00078
2391.20549,0.00104
2389.14588,0.00142
2387.08627,0.00176
2385.02666,0.00195
2382.96706,0.00201
2380.90745,0.00192
2378.84784,0.00144
2376.78823,0.00064
2374.72862,-0.00001
2372.66901,-0.00044
2370.60940,-0.00106
2368.54980,-0.00182
2366.49019,-0.00213
2364.43058,-0.00170
2362.37097,-0.00070
2360.31136,0.00022
2358.25175,0.00038
2356.19214,-0.00001
2354.13254,-0.00002
2352.07293,0.00057
2350.01332,0.00105
2347.95371,0.00087
2345.89410,0.00026
2343.83449,-0.00027
2341.77488,-0.00043
2339.71528,-0.00024
2337.65567,-0.00003
2335.59606,0.00005
2333.53645,0.00029
2331.47684,0.00070
2329.41723,0.00125
2327.35763,0.00220
2325.29802,0.00329
2323.23841,0.00365
2321.17880,0.00315
2319.11919,0.00247
2317.05958,0.00215
2314.99997,0.00230
2312.94037,0.00261
2310.88076,0.00270
2308.82115,0.00252
2306.76154,0.00235
2304.70193,0.00230
2302.64232,0.00234
2300.58271,0.00254
2298.52311,0.00265
2296.46350,0.00263
2294.40389,0.00309
2292.34428,0.00417
2290.28467,0.00505
2288.22506,0.00517
2286.16545,0.00478
2284.10585,0.00447
2282.04624,0.00452
2279.98663,0.00456
2277.92702,0.00445
2275.86741,0.00439
2273.80780,0.00433
2271.74820,0.00432
2269.68859,0.00443
2267.62898,0.00422
2265.56937,0.00377
2263.50976,0.00404
2261.45015,0.00489
2259.39054,0.00530
2257.33094,0.00529
2255.27133,0.00545
2253.21172,0.00606
2251.15211,0.00731
2249.09250,0.00933
2247.03289,0.01261
2244.97328,0.01821
2242.91368,0.02724
2240.85407,0.03841
2238.79446,0.04749
2236.73485,0.04963
2234.67524,0.04297
2232.61563,0.03147
2230.55602,0.02066
2228.49642,0.01251
2226.43681,0.00671
2224.37720,0.00317
2222.31759,0.00155
2220.25798,0.00084
2218.19837,0.00065
2216.13877,0.00067
2214.07916,0.00075
2212.01955,0.00086
2209.95994,0.00024
2207.90033,-0.00015
2205.84072,0.00039
2203.78111,0.00042
2201.72151,0.00001
2199.66190,0.00005
2197.60229,0.00065
2195.54268,0.00163
2193.48307,0.00204
2191.42346,0.00221
2189.36385,0.00326
2187.30425,0.00364
2185.24464,0.00213
2183.18503,0.00039
2181.12542,-0.00024
2179.06581,-0.00029
2177.00620,-0.00128
2174.94659,-0.00234
2172.88699,-0.00143
2170.82738,0.00054
2168.76777,0.00157
2166.70816,0.00148
2164.64855,0.00114
2162.58894,0.00009
2160.52934,-0.00254
2158.46973,-0.00442
2156.41012,-0.00380
2154.35051,-0.00293
2152.29090,-0.00254
2150.23129,-0.00211
2148.17168,-0.00221
2146.11208,-0.00310
2144.05247,-0.00369
2141.99286,-0.00317
2139.93325,-0.00312
2137.87364,-0.00390
2135.81403,-0.00370
2133.75442,-0.00291
2131.69482,-0.00259
2129.63521,-0.00202
2127.57560,-0.00074
2125.51599,0.00022
2123.45638,0.00011
2121.39677,-0.00030
2119.33716,-0.00032
2117.27756,-0.00025
2115.21795,0.00007
2113.15834,0.00088
2111.09873,0.00136
2109.03912,0.00111
2106.97951,0.00080
2104.91991,0.00091
2102.86030,0.00107
2100.80069,0.00098
2098.74108,0.00090
2096.68147,0.00085
2094.62186,0.00057
2092.56225,0.00019
2090.50265,0.00020
2088.44304,0.00067
2086.38343,0.00097
2084.32382,0.00061
2082.26421,-0.00007
2080.20460,-0.00025
2078.14499,0.00037
2076.08539,0.00104
2074.02578,0.00119
2071.96617,0.00097
2069.90656,0.00044
2067.84695,0.00004
2065.78734,-0.00003
2063.72773,-0.00027
2061.66813,-0.00051
2059.60852,-0.00021
2057.54891,0.00036
2055.48930,0.00053
2053.42969,0.00069
2051.37008,0.00146
2049.31048,0.00208
2047.25087,0.00177
2045.19126,0.00109
2043.13165,0.00073
2041.07204,0.00089
2039.01243,0.00117
2036.95282,0.00113
2034.89322,0.00031
2032.83361,-0.00148
2030.77400,-0.00265
2028.71439,-0.00259
2026.65478,-0.00247
2024.59517,-0.00230
2022.53556,-0.00175
2020.47596,-0.00090
2018.41635,-0.00010
2016.35674,0.00015
2014.29713,0.00001
2012.23752,0.00029
2010.17791,0.00109
2008.11830,0.00145
2006.05870,0.00122
2003.99909,0.00093
2001.93948,0.00065
1999.87987,0.00015
1997.82026,-0.00001
1995.76065,0.00037
1993.70105,0.00043
1991.64144,0.00074
1989.58183,0.00165
1987.52222,0.00215
1985.46261,0.00225
1983.40300,0.00209
1981.34339,0.00190
1979.28379,0.00112
1977.22418,-0.00004
1975.16457,-0.00013
1973.10496,0.00024
1971.04535,0.00022
1968.98574,0.00004
1966.92613,0.00010
1964.86653,0.00006
1962.80692,-0.00102
1960.74731,-0.00207
1958.68770,-0.00209
1956.62809,-0.00191
1954.56848,-0.00162
1952.50887,-0.00084
1950.44927,-0.00034
1948.38966,-0.00074
1946.33005,-0.00160
1944.27044,-0.00243
1942.21083,-0.00239
1940.15122,-0.00141
1938.09162,-0.00109
1936.03201,-0.00097
1933.97240,-0.00070
1931.91279,-0.00105
1929.85318,-0.00183
1927.79357,-0.00205
1925.73396,-0.00165
1923.67436,-0.00107
1921.61475,-0.00010
1919.55514,0.00009
1917.49553,-0.00011
1915.43592,0.00066
1913.37631,0.00098
1911.31670,0.00058
1909.25710,0.00019
1907.19749,0.00006
1905.13788,0.00014
1903.07827,0.00061
1901.01866,0.00110
1898.95905,0.00125
1896.89944,0.00114
1894.83984,0.00109
1892.78023,0.00117
1890.72062,0.00089
1888.66101,0.00105
1886.60140,0.00159
1884.54179,0.00153
1882.48219,0.00136
1880.42258,0.00144
1878.36297,0.00171
1876.30336,0.00189
1874.24375,0.00190
1872.18414,0.00171
1870.12453,0.00108
1868.06493,0.00117
1866.00532,0.00196
1863.94571,0.00191
1861.88610,0.00140
1859.82649,0.00132
1857.76688,0.00161
1855.70727,0.00184
1853.64767,0.00199
1851.58806,0.00237
1849.52845,0.00300
1847.46884,0.00353
1845.40923,0.00306
1843.34962,0.00297
1841.29002,0.00391
1839.23041,0.00387
1837.17080,0.00356
1835.11119,0.00399
1833.05158,0.00432
1830.99197,0.00362
1828.93236,0.00337
1826.87276,0.00345
1824.81315,0.00311
1822.75354,0.00341
1820.69393,0.00356
1818.63432,0.00332
1816.57471,0.00345
1814.51510,0.00395
1812.45550,0.00410
1810.39589,0.00416
1808.33628,0.00452
1806.27667,0.00486
1804.21706,0.00490
1802.15745,0.00463
1800.09784,0.00483
1798.03824,0.00576
1795.97863,0.00641
1793.91902,0.00602
1791.85941,0.00598
1789.79980,0.00747
1787.74019,0.00852
1785.68059,0.00882
1783.62098,0.00974
1781.56137,0.01095
1779.50176,0.01233
1777.44215,0.01402
1775.38254,0.01501
1773.32293,0.01511
1771.26333,0.01590
1769.20372,0.01678
1767.14411,0.01661
1765.08450,0.01577
1763.02489,0.01383
1760.96528,0.01236
1758.90567,0.01145
1756.84607,0.01034
1754.78646,0.01011
1752.72685,0.00939
1750.66724,0.00845
1748.60763,0.00886
1746.54802,0.00967
1744.48841,0.01000
1742.42881,0.00993
1740.36920,0.01006
1738.30959,0.01139
1736.24998,0.01155
1734.19037,0.01047
1732.13076,0.01208
1730.07116,0.01346
1728.01155,0.01350
1725.95194,0.01323
1723.89233,0.01308
1721.83272,0.01330
1719.77311,0.01224
1717.71350,0.01067
1715.65390,0.01106
1713.59429,0.01180
1711.53468,0.01173
1709.47507,0.01123
1707.41546,0.01067
1705.35585,0.01101
1703.29624,0.01177
1701.23664,0.01055
1699.17703,0.01063
1697.11742,0.01108
1695.05781,0.01091
1692.99820,0.01199
1690.93859,0.01212
1688.87898,0.01240
1686.81938,0.01217
1684.75977,0.01068
1682.70016,0.01242
1680.64055,0.01535
1678.58094,0.01650
1676.52133,0.01693
1674.46173,0.01901
1672.40212,0.02172
1670.34251,0.02235
1668.28290,0.02342
1666.22329,0.02466
1664.16368,0.02374
1662.10407,0.02294
1660.04447,0.02413
1657.98486,0.02565
1655.92525,0.02519
1653.86564,0.02341
1651.80603,0.02678
1649.74642,0.03091
1647.68681,0.03138
1645.62721,0.03411
1643.56760,0.03912
1641.50799,0.04247
1639.44838,0.04363
1637.38877,0.04195
1635.32916,0.03983
1633.26955,0.04058
1631.20995,0.04120
1629.15034,0.04105
1627.09073,0.04220
1625.03112,0.04424
1622.97151,0.04744
1620.91190,0.05264
1618.85230,0.05788
1616.79269,0.06521
1614.73308,0.07664
1612.67347,0.08745
1610.61386,0.09613
1608.55425,0.10328
1606.49464,0.10747
1604.43504,0.10755
1602.37543,0.10434
1600.31582,0.09959
1598.25621,0.09454
1596.19660,0.08998
1594.13699,0.08651
1592.07738,0.08394
1590.01778,0.08187
1587.95817,0.08051
1585.89856,0.08008
1583.83895,0.08073
1581.77934,0.08263
1579.71973,0.08461
1577.66012,0.08429
1575.60052,0.08276
1573.54091,0.08127
1571.48130,0.07661
1569.42169,0.07036
1567.36208,0.06619
1565.30247,0.06338
1563.24287,0.06127
1561.18326,0.05715
1559.12365,0.05205
1557.06404,0.05202
1555.00443,0.05230
1552.94482,0.05087
1550.88521,0.04959
1548.82561,0.04952
1546.76600,0.05052
1544.70639,0.05176
1542.64678,0.05238
1540.58717,0.05072
1538.52756,0.04899
1536.46795,0.04627
1534.40835,0.03996
1532.34874,0.03433
1530.28913,0.03137
1528.22952,0.02860
1526.16991,0.02636
1524.11030,0.02473
1522.05069,0.02272
1519.99109,0.02205
1517.93148,0.02166
1515.87187,0.02118
1513.81226,0.02165
1511.75265,0.02222
1509.69304,0.02188
1507.63344,0.02026
1505.57383,0.02122
1503.51422,0.02389
1501.45461,0.02430
1499.39500,0.02348
1497.33539,0.02342
1495.27578,0.02482
1493.21618,0.02597
1491.15657,0.02561
1489.09696,0.02630
1487.03735,0.02918
1484.97774,0.03299
1482.91813,0.03719
1480.85852,0.04236
1478.79892,0.04832
1476.73931,0.05423
1474.67970,0.06000
1472.62009,0.06550
1470.56048,0.07096
1468.50087,0.07515
1466.44126,0.07800
1464.38166,0.08113
1462.32205,0.08402
1460.26244,0.08593
1458.20283,0.09165
1456.14322,0.10570
1454.08361,0.12028
1452.02401,0.12817
1449.96440,0.13126
1447.90479,0.13235
1445.84518,0.13319
1443.78557,0.13428
1441.72596,0.13593
1439.66635,0.13731
1437.60675,0.13657
1435.54714,0.13409
1433.48753,0.12841
1431.42792,0.11738
1429.36831,0.10391
1427.30870,0.09257
1425.24909,0.08537
1423.18949,0.08273
1421.12988,0.08246
1419.07027,0.08274
1417.01066,0.08400
1414.95105,0.08481
1412.89144,0.08508
1410.83183,0.08575
1408.77223,0.08643
1406.71262,0.08601
1404.65301,0.08433
1402.59340,0.08148
1400.53379,0.07659
1398.47418,0.07053
1396.41458,0.06434
1394.35497,0.05830
1392.29536,0.05360
1390.23575,0.04969
1388.17614,0.04638
1386.11653,0.04512
1384.05692,0.04591
1381.99732,0.04760
1379.93771,0.04975
1377.87810,0.05153
1375.81849,0.05198
1373.75888,0.05151
1371.69927,0.05108
1369.63966,0.05050
1367.58006,0.05025
1365.52045,0.05017
1363.46084,0.04958
1361.40123,0.04922
1359.34162,0.04907
1357.28201,0.04850
1355.22240,0.04782
1353.16280,0.04732
1351.10319,0.04680
1349.04358,0.04612
1346.98397,0.04529
1344.92436,0.04434
1342.86475,0.04312
1340.80515,0.04139
1338.74554,0.03972
1336.68593,0.03852
1334.62632,0.03729
1332.56671,0.03601
1330.50710,0.03508
1328.44749,0.03475
1326.38789,0.03503
1324.32828,0.03587
1322.26867,0.03702
1320.20906,0.03805
1318.14945,0.03891
1316.08984,0.03963
1314.03023,0.04006
1311.97063,0.04036
1309.91102,0.04052
1307.85141,0.04041
1305.79180,0.04017
1303.73219,0.03979
1301.67258,0.03936
1299.61297,0.03903
1297.55337,0.03873
1295.49376,0.03828
1293.43415,0.03765
1291.37454,0.03687
1289.31493,0.03595
1287.25532,0.03494
1285.19572,0.03393
1283.13611,0.03299
1281.07650,0.03235
1279.01689,0.03211
1276.95728,0.03213
1274.89767,0.03221
1272.83806,0.03233
1270.77846,0.03261
1268.71885,0.03300
1266.65924,0.03327
1264.59963,0.03338
1262.54002,0.03331
1260.48041,0.03308
1258.42080,0.03283
1256.36120,0.03266
1254.30159,0.03270
1252.24198,0.03289
1250.18237,0.03302
1248.12276,0.03305
1246.06315,0.03313
1244.00354,0.03332
1241.94394,0.03362
1239.88433,0.03404
1237.82472,0.03450
1235.76511,0.03492
1233.70550,0.03538
1231.64589,0.03604
1229.58629,0.03698
1227.52668,0.03807
1225.46707,0.03900
1223.40746,0.03959
1221.34785,0.03976
1219.28824,0.03960
1217.22863,0.03929
1215.16903,0.03895
1213.10942,0.03862
1211.04981,0.03835
1208.99020,0.03827
1206.93059,0.03841
1204.87098,0.03861
1202.81137,0.03879
1200.75177,0.03896
1198.69216,0.03912
1196.63255,0.03928
1194.57294,0.03941
1192.51333,0.03950
1190.45372,0.03957
1188.39411,0.03956
1186.33451,0.03930
1184.27490,0.03881
1182.21529,0.03815
1180.15568,0.03728
1178.09607,0.03619
1176.03646,0.03499
1173.97686,0.03384
1171.91725,0.03282
1169.85764,0.03196
1167.79803,0.03113
1165.73842,0.03020
1163.67881,0.02926
1161.61920,0.02836
1159.55960,0.02754
1157.49999,0.02685
1155.44038,0.02622
1153.38077,0.02558
1151.32116,0.02506
1149.26155,0.02474
1147.20194,0.02460
1145.14234,0.02461
1143.08273,0.02479
1141.02312,0.02524
1138.96351,0.02607
1136.90390,0.02720
1134.84429,0.02830
1132.78468,0.02901
1130.72508,0.02915
1128.66547,0.02869
1126.60586,0.02784
1124.54625,0.02698
1122.48664,0.02642
1120.42703,0.02618
1118.36743,0.02617
1116.30782,0.02641
1114.24821,0.02682
1112.18860,0.02703
1110.12899,0.02688
1108.06938,0.02661
1106.00977,0.02648
1103.95017,0.02664
1101.89056,0.02699
1099.83095,0.02740
1097.77134,0.02795
1095.71173,0.02866
1093.65212,0.02929
1091.59251,0.02980
1089.53291,0.03027
1087.47330,0.03079
1085.41369,0.03144
1083.35408,0.03196
1081.29447,0.03206
1079.23486,0.03182
1077.17525,0.03154
1075.11565,0.03120
1073.05604,0.03070
1070.99643,0.03015
1068.93682,0.02975
1066.87721,0.02961
1064.81760,0.02972
1062.75800,0.03006
1060.69839,0.03058
1058.63878,0.03137
1056.57917,0.03236
1054.51956,0.03327
1052.45995,0.03414
1050.40034,0.03499
1048.34074,0.03544
1046.28113,0.03531
1044.22152,0.03467
1042.16191,0.03364
1040.10230,0.03242
1038.04269,0.03131
1035.98308,0.03031
1033.92348,0.02930
1031.86387,0.02858
1029.80426,0.02828
1027.74465,0.02815
1025.68504,0.02809
1023.62543,0.02826
1021.56582,0.02878
1019.50622,0.02971
1017.44661,0.03139
1015.38700,0.03380
1013.32739,0.03618
1011.26778,0.03797
1009.20817,0.03940
1007.14857,0.04103
1005.08896,0.04318
1003.02935,0.04597
1000.96974,0.04918
998.91013,0.05230
996.85052,0.05493
994.79091,0.05694
992.73131,0.05868
990.67170,0.06116
988.61209,0.06571
986.55248,0.07330
984.49287,0.08452
982.43326,0.09976
980.37365,0.11913
978.31405,0.14248
976.25444,0.16924
974.19483,0.19833
972.13522,0.22797
970.07561,0.25483
968.01600,0.27354
965.95639,0.27764
963.89679,0.26262
961.83718,0.23001
959.77757,0.18832
957.71796,0.14771
955.65835,0.11444
953.59874,0.09008
951.53914,0.07322
949.47953,0.06164
947.41992,0.05363
945.36031,0.04819
943.30070,0.04469
941.24109,0.04268
939.18148,0.04180
937.12188,0.04185
935.06227,0.04279
933.00266,0.04453
930.94305,0.04697
928.88344,0.05000
926.82383,0.05345
924.76422,0.05716
922.70462,0.06086
920.64501,0.06395
918.58540,0.06583
916.52579,0.06624
914.46618,0.06509
912.40657,0.06230
910.34696,0.05800
908.28736,0.05262
906.22775,0.04676
904.16814,0.04109
902.10853,0.03615
900.04892,0.03214
897.98931,0.02906
895.92971,0.02692
893.87010,0.02560
891.81049,0.02479
889.75088,0.02421
887.69127,0.02360
885.63166,0.02299
883.57205,0.02258
881.51245,0.02226
879.45284,0.02184
877.39323,0.02128
875.33362,0.02066
873.27401,0.02012
871.21440,0.01972
869.15479,0.01945
867.09519,0.01928
865.03558,0.01909
862.97597,0.01889
860.91636,0.01877
858.85675,0.01871
856.79714,0.01858
854.73753,0.01837
852.67793,0.01825
850.61832,0.01838
848.55871,0.01864
846.49910,0.01879
844.43949,0.01898
842.37988,0.01947
840.32028,0.02029
838.26067,0.02140
836.20106,0.02232
834.14145,0.02246
832.08184,0.02199
830.02223,0.02147
827.96262,0.02117
825.90302,0.02102
823.84341,0.02090
821.78380,0.02081
819.72419,0.02075
817.66458,0.02072
815.60497,0.02076
813.54536,0.02086
811.48576,0.02099
809.42615,0.02106
807.36654,0.02107
805.30693,0.02118
803.24732,0.02145
801.18771,0.02180
799.12810,0.02209
797.06850,0.02235
795.00889,0.02278
792.94928,0.02332
790.88967,0.02370
788.83006,0.02404
786.77045,0.02446
784.71085,0.02476
782.65124,0.02492
780.59163,0.02514
778.53202,0.02545
776.47241,0.02588
774.41280,0.02642
772.35319,0.02706
770.29359,0.02780
768.23398,0.02850
766.17437,0.02903
764.11476,0.02950
762.05515,0.03003
759.99554,0.03055
757.93593,0.03104
755.87633,0.03157
753.81672,0.03216
751.75711,0.03278
749.69750,0.03332
747.63789,0.03382
745.57828,0.03438
743.51867,0.03499
741.45907,0.03561
739.39946,0.03633
737.33985,0.03716
735.28024,0.03814
733.22063,0.03940
731.16102,0.04082
729.10142,0.04179
727.04181,0.04213
724.98220,0.04248
722.92259,0.04322
720.86298,0.04392
718.80337,0.04372
716.74376,0.04261
714.68416,0.04153
712.62455,0.04111
710.56494,0.04112
708.50533,0.04125
706.44572,0.04157
704.38611,0.04216
702.32650,0.04286
700.26690,0.04349
698.20729,0.04404
696.14768,0.04457
694.08807,0.04520
692.02846,0.04585
689.96885,0.04635
687.90924,0.04652
685.84964,0.04626
683.79003,0.04567
681.73042,0.04511
679.67081,0.04475
677.61120,0.04447
675.55159,0.04413
673.49199,0.04373
671.43238,0.04323
669.37277,0.04261
667.31316,0.04208
665.25355,0.04164
663.19394,0.04114
661.13433,0.04062
659.07473,0.04027
657.01512,0.04009
654.95551,0.04002
652.89590,0.03999
650.83629,0.03990
648.77668,0.03981
646.71707,0.03980
644.65747,0.03977
642.59786,0.03955
640.53825,0.03921
638.47864,0.03902
636.41903,0.03908
634.35942,0.03913
632.29981,0.03894
630.24021,0.03870
628.18060,0.03855
626.12099,0.03849
624.06138,0.03854
622.00177,0.03855
619.94216,0.03835
617.88256,0.03801
615.82295,0.03755
613.76334,0.03718
611.70373,0.03708
609.64412,0.03711
607.58451,0.03710
605.52490,0.03696
603.46530,0.03666
601.40569,0.03626
599.34608,0.03586
597.28647,0.03557
595.22686,0.03538
593.16725,0.03527
591.10764,0.03530
589.04804,0.03534
586.98843,0.03527
584.92882,0.03524
582.86921,0.03521
580.80960,0.03506
578.74999,0.03494
576.69039,0.03481
574.63078,0.03455
572.57117,0.03411
570.51156,0.03379
568.45195,0.03379
566.39234,0.03395
564.33273,0.03416
562.27313,0.03441
560.21352,0.03451
558.15391,0.03433
556.09430,0.03415
554.03469,0.03427
551.97508,0.03451
549.91547,0.03457
547.85587,0.03434
545.79626,0.03398
543.73665,0.03375
541.67704,0.03360
539.61743,0.03331
537.55782,0.03293
535.49821,0.03250
533.43861,0.03202
531.37900,0.03164
529.31939,0.03145
527.25978,0.03122
525.20017,0.03099
523.14056,0.03074
521.08096,0.03023
519.02135,0.02965
516.96174,0.02942
514.90213,0.02943
512.84252,0.02914
510.78291,0.02863
508.72330,0.02827
506.66370,0.02809
504.60409,0.02784
502.54448,0.02739
500.48487,0.02706
498.42526,0.02677
496.36565,0.02643
494.30604,0.02601
492.24644,0.02556
490.18683,0.02530
488.12722,0.02523
486.06761,0.02506
484.00800,0.02481
481.94839,0.02477
479.88878,0.02482
477.82918,0.02481
475.76957,0.02484
473.70996,0.02472
471.65035,0.02450
469.59074,0.02435
467.53113,0.02433
465.47153,0.02441
463.41192,0.02428
461.35231,0.02433
459.29270,0.02446
457.23309,0.02435
455.17348,0.02419
453.11387,0.02418
451.05427,0.02452
448.99466,0.02503
446.93505,0.02557
444.87544,0.02613
442.81583,0.02678
440.75622,0.02762
438.69661,0.02824
436.63701,0.02861
434.57740,0.02920
432.51779,0.02997
430.45818,0.03071
428.39857,0.03143
426.33896,0.03189
424.27935,0.03197
422.21975,0.03187
420.16014,0.03166
418.10053,0.03190
416.04092,0.03218
413.98131,0.03186
411.92170,0.03165
409.86210,0.03161
407.80249,0.03117
405.74288,0.03036
403.68327,0.02973
401.62366,0.02919
399.56405,0.02846
