2996.73039,0.09567
2994.67079,0.08661
2992.61118,0.07724
2990.55157,0.06940
2988.49196,0.06214
2986.43235,0.05437
2984.37274,0.04746
2982.31313,0.04151
2980.25353,0.03615
2978.19392,0.03243
2976.13431,0.02945
2974.07470,0.02621
2972.01509,0.02391
2969.95548,0.02271
2967.89587,0.02055
2965.83627,0.01800
2963.77666,0.01634
2961.71705,0.01498
2959.65744,0.01480
2957.59783,0.01423
2955.53822,0.01145
2953.47861,0.00729
2951.41901,0.00263
2949.35940,0.00000
2947.29979,0.00076
2945.24018,0.00298
2943.18057,0.00442
2941.12096,0.00561
2939.06136,0.00839
2937.00175,0.01205
2934.94214,0.01519
2932.88253,0.01800
2930.82292,0.01614
2928.76331,0.01346
2926.70370,0.01254
2924.64410,0.01332
2922.58449,0.01400
2920.52488,0.01402
2918.46527,0.01390
2916.40566,0.01370
2914.34605,0.01296
2912.28644,0.01257
2910.22684,0.01347
2908.16723,0.01407
2906.10762,0.01299
2904.04801,0.01202
2901.98840,0.01350
2899.92879,0.01800
2897.86918,0.01926
2895.80958,0.01825
2893.74997,0.01466
2891.69036,0.01201
2889.63075,0.01194
2887.57114,0.01279
2885.51153,0.01325
2883.45193,0.01336
2881.39232,0.01404
2879.33271,0.01578
2877.27310,0.01697
2875.21349,0.01705
2873.15388,0.01828
2871.09427,0.01963
2869.03467,0.01851
2866.97506,0.01800
2864.91545,0.01779
2862.85584,0.01640
2860.79623,0.01290
2858.73662,0.01102
2856.67701,0.01211
2854.61741,0.01414
2852.55780,0.01516
2850.49819,0.01587
2848.43858,0.01605
2846.37897,0.01425
2844.31936,0.01230
2842.25975,0.01245
2840.20015,0.01418
2838.14054,0.01622
2836.08093,0.01781
2834.02132,0.01800
2831.96171,0.01522
2829.90210,0.01414
2827.84250,0.01515
2825.78289,0.01510
2823.72328,0.01374
2821.66367,0.01298
2819.60406,0.01321
2817.54445,0.01393
2815.48484,0.01465
2813.42524,0.01575
2811.36563,0.01727
2809.30602,0.01837
2807.24641,0.01837
2805.18680,0.01753
2803.12719,0.01732
2801.06758,0.01800
2799.00798,0.01737
2796.94837,0.01668
2794.88876,0.01608
2792.82915,0.01615
2790.76954,0.01686
2788.70993,0.01667
2786.65032,0.01532
2784.59072,0.01413
2782.53111,0.01396
2780.47150,0.01458
2778.41189,0.01570
2776.35228,0.01725
2774.29267,0.01892
2772.23307,0.01998
2770.17346,0.01942
2768.11385,0.01800
2766.05424,0.01637
2763.99463,0.01556
2761.93502,0.01611
2759.87541,0.01766
2757.81581,0.01891
2755.75620,0.01935
2753.69659,0.01877
2751.63698,0.01808
2749.57737,0.01840
2747.51776,0.01901
2745.45815,0.01805
2743.39855,0.01615
2741.33894,0.01593
2739.27933,0.01684
2737.21972,0.01735
2735.16011,0.01800
2733.10050,0.01832
2731.04089,0.01825
2728.98129,0.01744
2726.92168,0.01686
2724.86207,0.01749
2722.80246,0.01904
2720.74285,0.01956
2718.68324,0.01822
2716.62364,0.01658
2714.56403,0.01613
2712.50442,0.01677
2710.44481,0.01763
2708.38520,0.01810
2706.32559,0.01745
2704.26598,0.01690
2702.20638,0.01800
2700.14677,0.01889
2698.08716,0.01892
2696.02755,0.01896
2693.96794,0.01887
2691.90833,0.01839
2689.84872,0.01798
2687.78912,0.01847
2685.72951,0.01962
2683.66990,0.01932
2681.61029,0.01755
2679.55068,0.01628
2677.49107,0.01618
2675.43146,0.01727
2673.37186,0.01871
2671.31225,0.01886
2669.25264,0.01800
2667.19303,0.01753
2665.13342,0.01800
2663.07381,0.01863
2661.01421,0.01930
2658.95460,0.01912
2656.89499,0.01811
2654.83538,0.01807
2652.77577,0.01808
2650.71616,0.01730
2648.65655,0.01812
2646.59695,0.01937
2644.53734,0.01913
2642.47773,0.01960
2640.41812,0.02053
2638.35851,0.02013
2636.29890,0.01908
2634.23929,0.01753
2632.17969,0.01588
2630.12008,0.01536
2628.06047,0.01641
2626.00086,0.01788
2623.94125,0.01768
2621.88164,0.01663
2619.82203,0.01722
2617.76243,0.01922
2615.70282,0.02052
2613.64321,0.02044
2611.58360,0.02065
2609.52399,0.02120
2607.46438,0.01999
2605.40478,0.01819
2603.34517,0.01800
2601.28556,0.01868
2599.22595,0.01951
2597.16634,0.02040
2595.10673,0.02115
2593.04712,0.02026
2590.98752,0.01857
2588.92791,0.01867
2586.86830,0.02048
2584.80869,0.02151
2582.74908,0.01999
2580.68947,0.01789
2578.62986,0.01800
2576.57026,0.01934
2574.51065,0.01950
2572.45104,0.01945
2570.39143,0.02095
2568.33182,0.02185
2566.27221,0.02194
2564.21260,0.02194
2562.15300,0.02144
2560.09339,0.02116
2558.03378,0.02107
2555.97417,0.02126
2553.91456,0.02290
2551.85495,0.02447
2549.79535,0.02327
2547.73574,0.02108
2545.67613,0.02151
2543.61652,0.02380
2541.55691,0.02395
2539.49730,0.02186
2537.43769,0.02175
2535.37809,0.02377
2533.31848,0.02434
2531.25887,0.02308
2529.19926,0.02115
2527.13965,0.02000
2525.08004,0.02074
2523.02043,0.02179
2520.96083,0.02341
2518.90122,0.02582
2516.84161,0.02618
2514.78200,0.02486
2512.72239,0.02336
2510.66278,0.02249
2508.60317,0.02503
2506.54357,0.02844
2504.48396,0.02774
2502.42435,0.02510
2500.36474,0.02419
2498.30513,0.02553
2496.24552,0.02813
2494.18592,0.02971
2492.12631,0.02948
2490.06670,0.02896
2488.00709,0.02950
2485.94748,0.03117
2483.88787,0.03293
2481.82826,0.03404
2479.76866,0.03390
2477.70905,0.03351
2475.64944,0.03465
2473.58983,0.03689
2471.53022,0.03813
2469.47061,0.03660
2467.41100,0.03461
2465.35140,0.03470
2463.29179,0.03640
2461.23218,0.03887
2459.17257,0.04018
2457.11296,0.04014
2455.05335,0.04011
2452.99374,0.03968
2450.93414,0.03965
2448.87453,0.04127
2446.81492,0.04352
2444.75531,0.04507
2442.69570,0.04533
2440.63609,0.04542
2438.57649,0.04641
2436.51688,0.04607
2434.45727,0.04411
2432.39766,0.04415
2430.33805,0.04599
2428.27844,0.04730
2426.21883,0.04906
2424.15923,0.05086
2422.09962,0.05169
2420.04001,0.05295
2417.98040,0.05363
2415.92079,0.05280
2413.86118,0.05225
2411.80157,0.05209
2409.74197,0.05169
2407.68236,0.05280
2405.62275,0.05622
2403.56314,0.05848
2401.50353,0.05754
2399.44392,0.05702
2397.38431,0.05929
2395.32471,0.06118
2393.26510,0.06123
2391.20549,0.06120
2389.14588,0.06122
2387.08627,0.06181
2385.02666,0.06426
2382.96706,0.06760
2380.90745,0.06827
2378.84784,0.06559
2376.78823,0.06441
2374.72862,0.06602
2372.66901,0.06724
2370.60940,0.06910
2368.54980,0.07272
2366.49019,0.07662
2364.43058,0.08114
2362.37097,0.08557
2360.31136,0.08752
2358.25175,0.08765
2356.19214,0.08681
2354.13254,0.08479
2352.07293,0.08392
2350.01332,0.08472
2347.95371,0.08646
2345.89410,0.08910
2343.83449,0.09061
2341.77488,0.08886
2339.71528,0.08699
2337.65567,0.08899
2335.59606,0.09258
2333.53645,0.09520
2331.47684,0.09692
2329.41723,0.09689
2327.35763,0.09645
2325.29802,0.09726
2323.23841,0.09860
2321.17880,0.09962
2319.11919,0.09969
2317.05958,0.09955
2314.99997,0.10147
2312.94037,0.10358
2310.88076,0.10253
2308.82115,0.10070
2306.76154,0.10106
2304.70193,0.10380
2302.64232,0.10707
2300.58271,0.10715
2298.52311,0.10510
2296.46350,0.10529
2294.40389,0.10742
2292.34428,0.10979
2290.28467,0.11274
2288.22506,0.11389
2286.16545,0.11107
2284.10585,0.10825
2282.04624,0.10845
2279.98663,0.11111
2277.92702,0.11494
2275.86741,0.11575
2273.80780,0.11267
2271.74820,0.11058
2269.68859,0.11113
2267.62898,0.11131
2265.56937,0.11058
2263.50976,0.11235
2261.45015,0.11448
2259.39054,0.11278
2257.33094,0.11093
2255.27133,0.11391
2253.21172,0.11922
2251.15211,0.12159
2249.09250,0.12197
2247.03289,0.12077
2244.97328,0.11831
2242.91368,0.11798
2240.85407,0.11945
2238.79446,0.12123
2236.73485,0.12313
2234.67524,0.12467
2232.61563,0.12562
2230.55602,0.12814
2228.49642,0.13161
2226.43681,0.13279
2224.37720,0.13149
2222.31759,0.12963
2220.25798,0.13155
2218.19837,0.13714
2216.13877,0.13951
2214.07916,0.13662
2212.01955,0.13336
2209.95994,0.13295
2207.90033,0.13541
2205.84072,0.13763
2203.78111,0.13647
2201.72151,0.13244
2199.66190,0.12671
2197.60229,0.12392
2195.54268,0.12723
2193.48307,0.13101
2191.42346,0.13299
2189.36385,0.13625
2187.30425,0.13739
2185.24464,0.13453
2183.18503,0.13104
2181.12542,0.12789
2179.06581,0.12751
2177.00620,0.13067
2174.94659,0.13358
2172.88699,0.13438
2170.82738,0.13228
2168.76777,0.12841
2166.70816,0.12692
2164.64855,0.12415
2162.58894,0.11412
2160.52934,0.10458
2158.46973,0.10741
2156.41012,0.12131
2154.35051,0.13577
2152.29090,0.14353
2150.23129,0.14418
2148.17168,0.14280
2146.11208,0.14525
2144.05247,0.15166
2141.99286,0.15568
2139.93325,0.15618
2137.87364,0.15868
2135.81403,0.16411
2133.75442,0.16936
2131.69482,0.17252
2129.63521,0.17360
2127.57560,0.17250
2125.51599,0.17129
2123.45638,0.17392
2121.39677,0.17892
2119.33716,0.18079
2117.27756,0.17791
2115.21795,0.17498
2113.15834,0.17465
2111.09873,0.17400
2109.03912,0.17316
2106.97951,0.17396
2104.91991,0.17372
2102.86030,0.16975
2100.80069,0.16552
2098.74108,0.16527
2096.68147,0.16623
2094.62186,0.16532
2092.56225,0.16433
2090.50265,0.16467
2088.44304,0.16568
2086.38343,0.16514
2084.32382,0.16183
2082.26421,0.15889
2080.20460,0.15765
2078.14499,0.15565
2076.08539,0.15223
2074.02578,0.14869
2071.96617,0.14672
2069.90656,0.14578
2067.84695,0.14350
2065.78734,0.13808
2063.72773,0.13334
2061.66813,0.13189
2059.60852,0.13052
2057.54891,0.13029
2055.48930,0.12995
2053.42969,0.12379
2051.37008,0.11354
2049.31048,0.10809
2047.25087,0.10880
2045.19126,0.10740
2043.13165,0.10200
2041.07204,0.09622
2039.01243,0.08761
2036.95282,0.07666
2034.89322,0.06933
2032.83361,0.06572
2030.77400,0.06558
2028.71439,0.06640
2026.65478,0.06631
2024.59517,0.06685
2022.53556,0.06675
2020.47596,0.06964
2018.41635,0.07421
2016.35674,0.06880
2014.29713,0.05910
2012.23752,0.05624
2010.17791,0.05377
2008.11830,0.04801
2006.05870,0.04450
2003.99909,0.04691
2001.93948,0.05186
1999.87987,0.05427
1997.82026,0.05479
1995.76065,0.05436
1993.70105,0.04959
1991.64144,0.04314
1989.58183,0.04407
1987.52222,0.04973
1985.46261,0.04856
1983.40300,0.04021
1981.34339,0.03488
1979.28379,0.03309
1977.22418,0.02920
1975.16457,0.02663
1973.10496,0.02762
1971.04535,0.02754
1968.98574,0.02360
1966.92613,0.01977
1964.86653,0.02059
1962.80692,0.02305
1960.74731,0.02361
1958.68770,0.02399
1956.62809,0.02323
1954.56848,0.01987
1952.50887,0.01865
1950.44927,0.02150
1948.38966,0.02344
1946.33005,0.02234
1944.27044,0.02283
1942.21083,0.02569
1940.15122,0.02611
1938.09162,0.02485
1936.03201,0.02389
1933.97240,0.02392
1931.91279,0.02576
1929.85318,0.02722
1927.79357,0.02700
1925.73396,0.02631
1923.67436,0.02471
1921.61475,0.02234
1919.55514,0.02237
1917.49553,0.02518
1915.43592,0.02744
1913.37631,0.02635
1911.31670,0.02259
1909.25710,0.01970
1907.19749,0.01898
1905.13788,0.01937
1903.07827,0.01908
1901.01866,0.01800
1898.95905,0.01886
1896.89944,0.02152
1894.83984,0.02217
1892.78023,0.02012
1890.72062,0.01849
1888.66101,0.01773
1886.60140,0.01684
1884.54179,0.01625
1882.48219,0.01596
1880.42258,0.01687
1878.36297,0.01892
1876.30336,0.01973
1874.24375,0.01849
1872.18414,0.01800
1870.12453,0.01925
1868.06493,0.02094
1866.00532,0.02219
1863.94571,0.02247
1861.88610,0.02198
1859.82649,0.02184
1857.76688,0.02200
1855.70727,0.02120
1853.64767,0.01930
1851.58806,0.01787
1849.52845,0.01764
1847.46884,0.01715
1845.40923,0.01732
1843.34962,0.01954
1841.29002,0.02136
1839.23041,0.02149
1837.17080,0.02180
1835.11119,0.02307
1833.05158,0.02334
1830.99197,0.02325
1828.93236,0.02486
1826.87276,0.02639
1824.81315,0.02662
1822.75354,0.02657
1820.69393,0.02635
1818.63432,0.02667
1816.57471,0.02815
1814.51510,0.03088
1812.45550,0.03354
1810.39589,0.03484
1808.33628,0.03546
1806.27667,0.03667
1804.21706,0.03924
1802.15745,0.04164
1800.09784,0.04252
1798.03824,0.04313
1795.97863,0.04470
1793.91902,0.04668
1791.85941,0.04971
1789.79980,0.05306
1787.74019,0.05522
1785.68059,0.05686
1783.62098,0.05915
1781.56137,0.06251
1779.50176,0.06585
1777.44215,0.06832
1775.38254,0.07072
1773.32293,0.07539
1771.26333,0.08179
1769.20372,0.08706
1767.14411,0.09099
1765.08450,0.09484
1763.02489,0.10001
1760.96528,0.10619
1758.90567,0.11105
1756.84607,0.11577
1754.78646,0.12209
1752.72685,0.12938
1750.66724,0.13825
1748.60763,0.14744
1746.54802,0.15585
1744.48841,0.16406
1742.42881,0.17310
1740.36920,0.18376
1738.30959,0.19431
1736.24998,0.20358
1734.19037,0.21739
1732.13076,0.23376
1730.07116,0.24600
1728.01155,0.25863
1725.95194,0.27314
1723.89233,0.29020
1721.83272,0.30795
1719.77311,0.32652
1717.71350,0.35065
1715.65390,0.37823
1713.59429,0.40267
1711.53468,0.42618
1709.47507,0.45123
1707.41546,0.47888
1705.35585,0.51033
1703.29624,0.54059
1701.23664,0.57661
1699.17703,0.62215
1697.11742,0.66353
1695.05781,0.70987
1692.99820,0.75527
1690.93859,0.79704
1688.87898,0.84278
1686.81938,0.88721
1684.75977,0.94499
1682.70016,1.01401
1680.64055,1.06658
1678.58094,1.11331
1676.52133,1.16785
1674.46173,1.23264
1672.40212,1.29090
1670.34251,1.34829
1668.28290,1.41466
1666.22329,1.47220
1664.16368,1.52696
1662.10407,1.59177
1660.04447,1.65414
1657.98486,1.70570
1655.92525,1.74923
1653.86564,1.80457
1651.80603,1.87006
1649.74642,1.90317
1647.68681,1.92937
1645.62721,1.96345
1643.56760,1.98568
1641.50799,1.99581
1639.44838,2.00000
1637.38877,1.99877
1635.32916,1.99104
1633.26955,1.97352
1631.20995,1.94767
1629.15034,1.91311
1627.09073,1.87057
1625.03112,1.82269
1622.97151,1.76734
1620.91190,1.70938
1618.85230,1.65214
1616.79269,1.58412
1614.73308,1.51280
1612.67347,1.44968
1610.61386,1.38691
1608.55425,1.32259
1606.49464,1.25968
1604.43504,1.20016
1602.37543,1.14365
1600.31582,1.09106
1598.25621,1.04310
1596.19660,0.99820
1594.13699,0.95483
1592.07738,0.91454
1590.01778,0.87782
1587.95817,0.84402
1585.89856,0.81296
1583.83895,0.78484
1581.77934,0.75960
1579.71973,0.73710
1577.66012,0.71596
1575.60052,0.69476
1573.54091,0.67709
1571.48130,0.66215
1569.42169,0.64787
1567.36208,0.63528
1565.30247,0.62476
1563.24287,0.61588
1561.18326,0.60840
1559.12365,0.60385
1557.06404,0.60382
1555.00443,0.60341
1552.94482,0.60180
1550.88521,0.60054
1548.82561,0.59962
1546.76600,0.59733
1544.70639,0.59247
1542.64678,0.58548
1540.58717,0.57525
1538.52756,0.56093
1536.46795,0.54645
1534.40835,0.53062
1532.34874,0.51261
1530.28913,0.49606
1528.22952,0.48098
1526.16991,0.46695
1524.11030,0.45557
1522.05069,0.44599
1519.99109,0.43663
1517.93148,0.42623
1515.87187,0.41515
1513.81226,0.40469
1511.75265,0.39452
1509.69304,0.38405
1507.63344,0.37301
1505.57383,0.36280
1503.51422,0.35503
1501.45461,0.34802
1499.39500,0.34091
1497.33539,0.33351
1495.27578,0.32663
1493.21618,0.32117
1491.15657,0.31639
1489.09696,0.31190
1487.03735,0.30715
1484.97774,0.30239
1482.91813,0.29867
1480.85852,0.29597
1478.79892,0.29346
1476.73931,0.29089
1474.67970,0.28895
1472.62009,0.28824
1470.56048,0.28825
1468.50087,0.28758
1466.44126,0.28603
1464.38166,0.28488
1462.32205,0.28465
1460.26244,0.28384
1458.20283,0.28254
1456.14322,0.28128
1454.08361,0.27885
1452.02401,0.27587
1449.96440,0.27337
1447.90479,0.27125
1445.84518,0.26899
1443.78557,0.26649
1441.72596,0.26345
1439.66635,0.25961
1437.60675,0.25572
1435.54714,0.25307
1433.48753,0.25125
1431.42792,0.24932
1429.36831,0.24745
1427.30870,0.24583
1425.24909,0.24464
1423.18949,0.24361
1421.12988,0.24246
1419.07027,0.24203
1417.01066,0.24186
1414.95105,0.24038
1412.89144,0.23797
1410.83183,0.23554
1408.77223,0.23340
1406.71262,0.23139
1404.65301,0.22964
1402.59340,0.22839
1400.53379,0.22730
1398.47418,0.22602
1396.41458,0.22441
1394.35497,0.22235
1392.29536,0.22007
1390.23575,0.21791
1388.17614,0.21613
1386.11653,0.21477
1384.05692,0.21272
1381.99732,0.20947
1379.93771,0.20629
1377.87810,0.20388
1375.81849,0.20173
1373.75888,0.19981
1371.69927,0.19840
1369.63966,0.19722
1367.58006,0.19581
1365.52045,0.19427
1363.46084,0.19286
1361.40123,0.19103
1359.34162,0.18884
1357.28201,0.18721
1355.22240,0.18610
1353.16280,0.18522
1351.10319,0.18466
1349.04358,0.18425
1346.98397,0.18368
1344.92436,0.18331
1342.86475,0.18330
1340.80515,0.18303
1338.74554,0.18255
1336.68593,0.18176
1334.62632,0.17983
1332.56671,0.17715
1330.50710,0.17478
1328.44749,0.17347
1326.38789,0.17319
1324.32828,0.17247
1322.26867,0.17095
1320.20906,0.16993
1318.14945,0.16930
1316.08984,0.16816
1314.03023,0.16700
1311.97063,0.16611
1309.91102,0.16503
1307.85141,0.16405
1305.79180,0.16323
1303.73219,0.16188
1301.67258,0.16022
1299.61297,0.15909
1297.55337,0.15823
1295.49376,0.15721
1293.43415,0.15632
1291.37454,0.15552
1289.31493,0.15446
1287.25532,0.15301
1285.19572,0.15153
1283.13611,0.15066
1281.07650,0.15027
1279.01689,0.14975
1276.95728,0.14875
1274.89767,0.14747
1272.83806,0.14639
1270.77846,0.14549
1268.71885,0.14459
1266.65924,0.14367
1264.59963,0.14220
1262.54002,0.14029
1260.48041,0.13906
1258.42080,0.13818
1256.36120,0.13692
1254.30159,0.13562
1252.24198,0.13442
1250.18237,0.13326
1248.12276,0.13229
1246.06315,0.13127
1244.00354,0.12976
1241.94394,0.12777
1239.88433,0.12591
1237.82472,0.12449
1235.76511,0.12317
1233.70550,0.12138
1231.64589,0.11899
1229.58629,0.11636
1227.52668,0.11348
1225.46707,0.11055
1223.40746,0.10796
1221.34785,0.10565
1219.28824,0.10366
1217.22863,0.10201
1215.16903,0.10023
1213.10942,0.09817
1211.04981,0.09621
1208.99020,0.09453
1206.93059,0.09300
1204.87098,0.09165
1202.81137,0.09054
1200.75177,0.08929
1198.69216,0.08781
1196.63255,0.08648
1194.57294,0.08549
1192.51333,0.08457
1190.45372,0.08339
1188.39411,0.08173
1186.33451,0.07989
1184.27490,0.07862
1182.21529,0.07769
1180.15568,0.07651
1178.09607,0.07562
1176.03646,0.07499
1173.97686,0.07397
1171.91725,0.07273
1169.85764,0.07162
1167.79803,0.07075
1165.73842,0.06954
1163.67881,0.06762
1161.61920,0.06579
1159.55960,0.06459
1157.49999,0.06355
1155.44038,0.06208
1153.38077,0.06040
1151.32116,0.05878
1149.26155,0.05725
1147.20194,0.05590
1145.14234,0.05453
1143.08273,0.05321
1141.02312,0.05203
1138.96351,0.05082
1136.90390,0.04992
1134.84429,0.04964
1132.78468,0.04917
1130.72508,0.04797
1128.66547,0.04689
1126.60586,0.04628
1124.54625,0.04533
1122.48664,0.04415
1120.42703,0.04348
1118.36743,0.04326
1116.30782,0.04308
1114.24821,0.04248
1112.18860,0.04146
1110.12899,0.04073
1108.06938,0.04026
1106.00977,0.03930
1103.95017,0.03813
1101.89056,0.03686
1099.83095,0.03505
1097.77134,0.03345
1095.71173,0.03265
1093.65212,0.03204
1091.59251,0.03145
1089.53291,0.03146
1087.47330,0.03165
1085.41369,0.03107
1083.35408,0.02993
1081.29447,0.02919
1079.23486,0.02885
1077.17525,0.02807
1075.11565,0.02681
1073.05604,0.02581
1070.99643,0.02510
1068.93682,0.02428
1066.87721,0.02366
1064.81760,0.02344
1062.75800,0.02308
1060.69839,0.02241
1058.63878,0.02200
1056.57917,0.02228
1054.51956,0.02276
1052.45995,0.02275
1050.40034,0.02205
1048.34074,0.02051
1046.28113,0.01884
1044.22152,0.01800
1042.16191,0.01796
1040.10230,0.01827
1038.04269,0.01825
1035.98308,0.01794
1033.92348,0.01736
1031.86387,0.01689
1029.80426,0.01695
1027.74465,0.01699
1025.68504,0.01692
1023.62543,0.01690
1021.56582,0.01700
1019.50622,0.01800
1017.44661,0.01868
1015.38700,0.01856
1013.32739,0.01791
1011.26778,0.01716
1009.20817,0.01644
1007.14857,0.01623
1005.08896,0.01652
1003.02935,0.01659
1000.96974,0.01640
998.91013,0.01614
996.85052,0.01582
994.79091,0.01584
992.73131,0.01639
990.67170,0.01717
988.61209,0.01775
986.55248,0.01800
984.49287,0.01650
982.43326,0.01536
980.37365,0.01485
978.31405,0.01468
976.25444,0.01453
974.19483,0.01455
972.13522,0.01478
970.07561,0.01508
968.01600,0.01556
965.95639,0.01592
963.89679,0.01564
961.83718,0.01535
959.77757,0.01582
957.71796,0.01661
955.65835,0.01714
953.59874,0.01800
951.53914,0.01693
949.47953,0.01611
947.41992,0.01544
945.36031,0.01466
943.30070,0.01356
941.24109,0.01268
939.18148,0.01224
937.12188,0.01241
935.06227,0.01293
933.00266,0.01324
930.94305,0.01382
928.88344,0.01442
926.82383,0.01461
924.76422,0.01544
922.70462,0.01681
920.64501,0.01800
918.58540,0.01628
916.52579,0.01482
914.46618,0.01366
912.40657,0.01246
910.34696,0.01154
908.28736,0.01125
906.22775,0.01125
904.16814,0.01133
902.10853,0.01183
900.04892,0.01278
897.98931,0.01351
895.92971,0.01399
893.87010,0.01449
891.81049,0.01553
889.75088,0.01715
887.69127,0.01800
885.63166,0.01576
883.57205,0.01469
881.51245,0.01468
879.45284,0.01474
877.39323,0.01461
875.33362,0.01436
873.27401,0.01420
871.21440,0.01443
869.15479,0.01480
867.09519,0.01491
865.03558,0.01547
862.97597,0.01634
860.91636,0.01651
858.85675,0.01635
856.79714,0.01675
854.73753,0.01800
852.67793,0.01845
850.61832,0.01828
848.55871,0.01770
846.49910,0.01748
844.43949,0.01754
842.37988,0.01752
840.32028,0.01799
838.26067,0.01914
836.20106,0.01989
834.14145,0.01980
832.08184,0.01928
830.02223,0.01907
827.96262,0.01934
825.90302,0.01879
823.84341,0.01778
821.78380,0.01800
819.72419,0.01892
817.66458,0.01973
815.60497,0.02064
813.54536,0.02081
811.48576,0.01999
809.42615,0.01960
807.36654,0.01979
805.30693,0.01968
803.24732,0.01940
801.18771,0.01875
799.12810,0.01800
