3997.70013,0.00494
3995.64052,0.00446
3993.58092,0.00491
3991.52131,0.00530
3989.46170,0.00496
3987.40209,0.00463
3985.34248,0.00475
3983.28287,0.00473
3981.22327,0.00425
3979.16366,0.00383
3977.10405,0.00398
3975.04444,0.00449
3972.98483,0.00475
3970.92522,0.00476
3968.86561,0.00487
3966.80601,0.00485
3964.74640,0.00478
3962.68679,0.00534
3960.62718,0.00629
3958.56757,0.00643
3956.50796,0.00553
3954.44835,0.00474
3952.38875,0.00459
3950.32914,0.00477
3948.26953,0.00523
3946.20992,0.00534
3944.15031,0.00471
3942.09070,0.00415
3940.03109,0.00418
3937.97149,0.00446
3935.91188,0.00491
3933.85227,0.00523
3931.79266,0.00502
3929.73305,0.00452
3927.67344,0.00429
3925.61384,0.00446
3923.55423,0.00475
3921.49462,0.00513
3919.43501,0.00547
3917.37540,0.00544
3915.31579,0.00518
3913.25618,0.00485
3911.19658,0.00435
3909.13697,0.00419
3907.07736,0.00467
3905.01775,0.00465
3902.95814,0.00384
3900.89853,0.00374
3898.83892,0.00415
3896.77932,0.00420
3894.71971,0.00441
3892.66010,0.00489
3890.60049,0.00497
3888.54088,0.00483
3886.48127,0.00484
3884.42166,0.00477
3882.36206,0.00464
3880.30245,0.00428
3878.24284,0.00411
3876.18323,0.00456
3874.12362,0.00505
3872.06401,0.00529
3870.00441,0.00500
3867.94480,0.00434
3865.88519,0.00402
3863.82558,0.00401
3861.76597,0.00427
3859.70636,0.00499
3857.64675,0.00585
3855.58715,0.00628
3853.52754,0.00607
3851.46793,0.00545
3849.40832,0.00499
3847.34871,0.00476
3845.28910,0.00458
3843.22949,0.00430
3841.16989,0.00435
3839.11028,0.00493
3837.05067,0.00524
3834.99106,0.00518
3832.93145,0.00506
3830.87184,0.00479
3828.81223,0.00463
3826.75263,0.00474
3824.69302,0.00487
3822.63341,0.00480
3820.57380,0.00436
3818.51419,0.00407
3816.45458,0.00435
3814.39498,0.00507
3812.33537,0.00564
3810.27576,0.00560
3808.21615,0.00526
3806.15654,0.00503
3804.09693,0.00506
3802.03732,0.00507
3799.97772,0.00480
3797.91811,0.00454
3795.85850,0.00446
3793.79889,0.00459
3791.73928,0.00456
3789.67967,0.00421
3787.62006,0.00408
3785.56046,0.00433
3783.50085,0.00461
3781.44124,0.00452
3779.38163,0.00404
3777.32202,0.00371
3775.26241,0.00353
3773.20280,0.00346
3771.14320,0.00400
3769.08359,0.00497
3767.02398,0.00529
3764.96437,0.00481
3762.90476,0.00443
3760.84515,0.00481
3758.78555,0.00556
3756.72594,0.00584
3754.66633,0.00579
3752.60672,0.00561
3750.54711,0.00487
3748.48750,0.00415
3746.42789,0.00415
3744.36829,0.00428
3742.30868,0.00428
3740.24907,0.00456
3738.18946,0.00490
3736.12985,0.00494
3734.07024,0.00506
3732.01063,0.00513
3729.95103,0.00454
3727.89142,0.00398
3725.83181,0.00417
3723.77220,0.00455
3721.71259,0.00453
3719.65298,0.00447
3717.59337,0.00467
3715.53377,0.00476
3713.47416,0.00439
3711.41455,0.00425
3709.35494,0.00443
3707.29533,0.00405
3705.23572,0.00366
3703.17612,0.00382
3701.11651,0.00417
3699.05690,0.00441
3696.99729,0.00462
3694.93768,0.00461
3692.87807,0.00437
3690.81846,0.00439
3688.75886,0.00483
3686.69925,0.00495
3684.63964,0.00480
3682.58003,0.00519
3680.52042,0.00608
3678.46081,0.00633
3676.40120,0.00543
3674.34160,0.00422
3672.28199,0.00322
3670.22238,0.00276
3668.16277,0.00330
3666.10316,0.00422
3664.04355,0.00492
3661.98394,0.00492
3659.92434,0.00445
3657.86473,0.00430
3655.80512,0.00468
3653.74551,0.00496
3651.68590,0.00483
3649.62629,0.00513
3647.56669,0.00584
3645.50708,0.00556
3643.44747,0.00472
3641.38786,0.00389
3639.32825,0.00327
3637.26864,0.00346
3635.20903,0.00402
3633.14943,0.00419
3631.08982,0.00428
3629.03021,0.00431
3626.97060,0.00415
3624.91099,0.00412
3622.85138,0.00393
3620.79177,0.00389
3618.73217,0.00469
3616.67256,0.00516
3614.61295,0.00481
3612.55334,0.00475
3610.49373,0.00491
3608.43412,0.00459
3606.37451,0.00466
3604.31491,0.00531
3602.25530,0.00522
3600.19569,0.00445
3598.13608,0.00422
3596.07647,0.00437
3594.01686,0.00451
3591.95726,0.00472
3589.89765,0.00464
3587.83804,0.00455
3585.77843,0.00458
3583.71882,0.00443
3581.65921,0.00446
3579.59960,0.00504
3577.54000,0.00606
3575.48039,0.00656
3573.42078,0.00598
3571.36117,0.00532
3569.30156,0.00537
3567.24195,0.00573
3565.18234,0.00596
3563.12274,0.00589
3561.06313,0.00578
3559.00352,0.00601
3556.94391,0.00629
3554.88430,0.00628
3552.82469,0.00583
3550.76508,0.00523
3548.70548,0.00489
3546.64587,0.00519
3544.58626,0.00595
3542.52665,0.00640
3540.46704,0.00647
3538.40743,0.00644
3536.34783,0.00639
3534.28822,0.00645
3532.22861,0.00668
3530.16900,0.00639
3528.10939,0.00540
3526.04978,0.00464
3523.99017,0.00467
3521.93057,0.00542
3519.87096,0.00611
3517.81135,0.00624
3515.75174,0.00600
3513.69213,0.00574
3511.63252,0.00609
3509.57291,0.00699
3507.51331,0.00742
3505.45370,0.00678
3503.39409,0.00579
3501.33448,0.00550
3499.27487,0.00585
3497.21526,0.00621
3495.15565,0.00626
3493.09605,0.00598
3491.03644,0.00578
3488.97683,0.00599
3486.91722,0.00620
3484.85761,0.00606
3482.79800,0.00608
3480.73840,0.00634
3478.67879,0.00632
3476.61918,0.00632
3474.55957,0.00665
3472.49996,0.00681
3470.44035,0.00663
3468.38074,0.00646
3466.32114,0.00659
3464.26153,0.00699
3462.20192,0.00715
3460.14231,0.00696
3458.08270,0.00695
3456.02309,0.00687
3453.96348,0.00645
3451.90388,0.00662
3449.84427,0.00745
3447.78466,0.00772
3445.72505,0.00710
3443.66544,0.00645
3441.60583,0.00639
3439.54622,0.00692
3437.48662,0.00734
3435.42701,0.00726
3433.36740,0.00722
3431.30779,0.00747
3429.24818,0.00783
3427.18857,0.00807
3425.12897,0.00795
3423.06936,0.00769
3421.00975,0.00782
3418.95014,0.00817
3416.89053,0.00836
3414.83092,0.00845
3412.77131,0.00823
3410.71171,0.00756
3408.65210,0.00706
3406.59249,0.00730
3404.53288,0.00796
3402.47327,0.00853
3400.41366,0.00889
3398.35405,0.00891
3396.29445,0.00854
3394.23484,0.00847
3392.17523,0.00886
3390.11562,0.00905
3388.05601,0.00901
3385.99640,0.00913
3383.93679,0.00933
3381.87719,0.00914
3379.81758,0.00882
3377.75797,0.00894
3375.69836,0.00937
3373.63875,0.00980
3371.57914,0.01001
3369.51954,0.01015
3367.45993,0.01060
3365.40032,0.01111
3363.34071,0.01136
3361.28110,0.01180
3359.22149,0.01240
3357.16188,0.01274
3355.10228,0.01308
3353.04267,0.01383
3350.98306,0.01489
3348.92345,0.01576
3346.86384,0.01624
3344.80423,0.01663
3342.74462,0.01701
3340.68502,0.01731
3338.62541,0.01759
3336.56580,0.01829
3334.50619,0.01960
3332.44658,0.02114
3330.38697,0.02226
3328.32736,0.02281
3326.26776,0.02347
3324.20815,0.02467
3322.14854,0.02623
3320.08893,0.02794
3318.02932,0.02961
3315.96971,0.03114
3313.91011,0.03277
3311.85050,0.03450
3309.79089,0.03593
3307.73128,0.03707
3305.67167,0.03826
3303.61206,0.03969
3301.55245,0.04115
3299.49285,0.04223
3297.43324,0.04282
3295.37363,0.04279
3293.31402,0.04236
3291.25441,0.04201
3289.19480,0.04153
3287.13519,0.04076
3285.07559,0.04009
3283.01598,0.03950
3280.95637,0.03862
3278.89676,0.03778
3276.83715,0.03720
3274.77754,0.03659
3272.71793,0.03592
3270.65833,0.03522
3268.59872,0.03464
3266.53911,0.03407
3264.47950,0.03294
3262.41989,0.03138
3260.36028,0.03000
3258.30068,0.02886
3256.24107,0.02794
3254.18146,0.02743
3252.12185,0.02702
3250.06224,0.02622
3248.00263,0.02512
3245.94302,0.02390
3243.88342,0.02289
3241.82381,0.02227
3239.76420,0.02140
3237.70459,0.02040
3235.64498,0.01992
3233.58537,0.01979
3231.52576,0.01943
3229.46616,0.01863
3227.40655,0.01802
3225.34694,0.01804
3223.28733,0.01819
3221.22772,0.01780
3219.16811,0.01703
3217.10850,0.01651
3215.04890,0.01606
3212.98929,0.01534
3210.92968,0.01487
3208.87007,0.01491
3206.81046,0.01507
3204.75085,0.01498
3202.69125,0.01466
3200.63164,0.01451
3198.57203,0.01455
3196.51242,0.01438
3194.45281,0.01400
3192.39320,0.01388
3190.33359,0.01394
3188.27399,0.01363
3186.21438,0.01299
3184.15477,0.01237
3182.09516,0.01196
3180.03555,0.01179
3177.97594,0.01173
3175.91633,0.01167
3173.85673,0.01158
3171.79712,0.01147
3169.73751,0.01134
3167.67790,0.01117
3165.61829,0.01096
3163.55868,0.01056
3161.49907,0.01000
3159.43947,0.00945
3157.37986,0.00890
3155.32025,0.00868
3153.26064,0.00889
3151.20103,0.00903
3149.14142,0.00890
3147.08182,0.00867
3145.02221,0.00837
3142.96260,0.00835
3140.90299,0.00890
3138.84338,0.00927
3136.78377,0.00911
3134.72416,0.00913
3132.66456,0.00941
3130.60495,0.00939
3128.54534,0.00894
3126.48573,0.00864
3124.42612,0.00891
3122.36651,0.00920
3120.30690,0.00931
3118.24730,0.00929
3116.18769,0.00917
3114.12808,0.00930
3112.06847,0.00968
3110.00886,0.00996
3107.94925,0.01021
3105.88965,0.01053
3103.83004,0.01063
3101.77043,0.01078
3099.71082,0.01126
3097.65121,0.01149
3095.59160,0.01161
3093.53199,0.01195
3091.47239,0.01203
3089.41278,0.01187
3087.35317,0.01215
3085.29356,0.01265
3083.23395,0.01267
3081.17434,0.01239
3079.11473,0.01229
3077.05513,0.01232
3074.99552,0.01235
3072.93591,0.01235
3070.87630,0.01231
3068.81669,0.01222
3066.75708,0.01198
3064.69747,0.01180
3062.63787,0.01180
3060.57826,0.01157
3058.51865,0.01102
3056.45904,0.01066
3054.39943,0.01055
3052.33982,0.01030
3050.28022,0.01003
3048.22061,0.01000
3046.16100,0.00986
3044.10139,0.00949
3042.04178,0.00909
3039.98217,0.00852
3037.92256,0.00789
3035.86296,0.00758
3033.80335,0.00741
3031.74374,0.00714
3029.68413,0.00702
3027.62452,0.00703
3025.56491,0.00681
3023.50530,0.00661
3021.44570,0.00660
3019.38609,0.00664
3017.32648,0.00676
3015.26687,0.00680
3013.20726,0.00663
3011.14765,0.00664
3009.08804,0.00679
3007.02844,0.00676
3004.96883,0.00666
3002.90922,0.00673
3000.84961,0.00680
2998.79000,0.00671
2996.73039,0.00672
2994.67079,0.00678
2992.61118,0.00665
2990.55157,0.00661
2988.49196,0.00688
2986.43235,0.00697
2984.37274,0.00676
2982.31313,0.00692
2980.25353,0.00755
2978.19392,0.00818
2976.13431,0.00856
2974.07470,0.00910
2972.01509,0.01018
2969.95548,0.01139
2967.89587,0.01231
2965.83627,0.01306
2963.77666,0.01390
2961.71705,0.01481
2959.65744,0.01572
2957.59783,0.01698
2955.53822,0.01854
2953.47861,0.02021
2951.41901,0.02232
2949.35940,0.02485
2947.29979,0.02723
2945.24018,0.02912
2943.18057,0.03078
2941.12096,0.03261
2939.06136,0.03416
2937.00175,0.03514
2934.94214,0.03581
2932.88253,0.03620
2930.82292,0.03632
2928.76331,0.03637
2926.70370,0.03611
2924.64410,0.03518
2922.58449,0.03385
2920.52488,0.03254
2918.46527,0.03125
2916.40566,0.02987
2914.34605,0.02837
2912.28644,0.02694
2910.22684,0.02589
2908.16723,0.02518
2906.10762,0.02451
2904.04801,0.02394
2901.98840,0.02374
2899.92879,0.02350
2897.86918,0.02266
2895.80958,0.02160
2893.74997,0.02086
2891.69036,0.02032
2889.63075,0.01975
2887.57114,0.01912
2885.51153,0.01858
2883.45193,0.01844
2881.39232,0.01863
2879.33271,0.01913
2877.27310,0.02015
2875.21349,0.02143
2873.15388,0.02287
2871.09427,0.02461
2869.03467,0.02607
2866.97506,0.02678
2864.91545,0.02713
2862.85584,0.02754
2860.79623,0.02791
2858.73662,0.02766
2856.67701,0.02683
2854.61741,0.02607
2852.55780,0.02527
2850.49819,0.02408
2848.43858,0.02261
2846.37897,0.02085
2844.31936,0.01860
2842.25975,0.01628
2840.20015,0.01462
2838.14054,0.01363
2836.08093,0.01298
2834.02132,0.01236
2831.96171,0.01153
2829.90210,0.01077
2827.84250,0.01036
2825.78289,0.01026
2823.72328,0.01031
2821.66367,0.01025
2819.60406,0.00998
2817.54445,0.00972
2815.48484,0.00959
2813.42524,0.00943
2811.36563,0.00914
2809.30602,0.00891
2807.24641,0.00877
2805.18680,0.00862
2803.12719,0.00862
2801.06758,0.00868
2799.00798,0.00859
2796.94837,0.00825
2794.88876,0.00785
2792.82915,0.00783
2790.76954,0.00801
2788.70993,0.00786
2786.65032,0.00755
2784.59072,0.00732
2782.53111,0.00723
2780.47150,0.00727
2778.41189,0.00722
2776.35228,0.00701
2774.29267,0.00683
2772.23307,0.00681
2770.17346,0.00694
2768.11385,0.00706
2766.05424,0.00712
2763.99463,0.00701
2761.93502,0.00666
2759.87541,0.00634
2757.81581,0.00637
2755.75620,0.00657
2753.69659,0.00664
2751.63698,0.00655
2749.57737,0.00652
2747.51776,0.00662
2745.45815,0.00659
2743.39855,0.00637
2741.33894,0.00621
2739.27933,0.00630
2737.21972,0.00639
2735.16011,0.00627
2733.10050,0.00617
2731.04089,0.00600
2728.98129,0.00570
2726.92168,0.00560
2724.86207,0.00560
2722.80246,0.00548
2720.74285,0.00549
2718.68324,0.00566
2716.62364,0.00570
2714.56403,0.00567
2712.50442,0.00587
2710.44481,0.00611
2708.38520,0.00603
2706.32559,0.00575
2704.26598,0.00558
2702.20638,0.00557
2700.14677,0.00554
2698.08716,0.00534
2696.02755,0.00514
2693.96794,0.00517
2691.90833,0.00532
2689.84872,0.00529
2687.78912,0.00526
2685.72951,0.00540
2683.66990,0.00552
2681.61029,0.00557
2679.55068,0.00554
2677.49107,0.00533
2675.43146,0.00509
2673.37186,0.00507
2671.31225,0.00520
2669.25264,0.00528
2667.19303,0.00532
2665.13342,0.00547
2663.07381,0.00568
2661.01421,0.00588
2658.95460,0.00609
2656.89499,0.00616
2654.83538,0.00607
2652.77577,0.00593
2650.71616,0.00578
2648.65655,0.00572
2646.59695,0.00573
2644.53734,0.00573
2642.47773,0.00566
2640.41812,0.00544
2638.35851,0.00507
2636.29890,0.00487
2634.23929,0.00486
2632.17969,0.00491
2630.12008,0.00522
2628.06047,0.00566
2626.00086,0.00569
2623.94125,0.00529
2621.88164,0.00488
2619.82203,0.00478
2617.76243,0.00496
2615.70282,0.00519
2613.64321,0.00538
2611.58360,0.00556
2609.52399,0.00556
2607.46438,0.00535
2605.40478,0.00509
2603.34517,0.00482
2601.28556,0.00464
2599.22595,0.00474
2597.16634,0.00499
2595.10673,0.00504
2593.04712,0.00492
2590.98752,0.00487
2588.92791,0.00504
2586.86830,0.00516
2584.80869,0.00510
2582.74908,0.00522
2580.68947,0.00520
2578.62986,0.00473
2576.57026,0.00451
2574.51065,0.00467
2572.45104,0.00450
2570.39143,0.00405
2568.33182,0.00391
2566.27221,0.00412
2564.21260,0.00432
2562.15300,0.00440
2560.09339,0.00417
2558.03378,0.00375
2555.97417,0.00360
2553.91456,0.00390
2551.85495,0.00446
2549.79535,0.00468
2547.73574,0.00446
2545.67613,0.00440
2543.61652,0.00462
2541.55691,0.00474
2539.49730,0.00465
2537.43769,0.00469
2535.37809,0.00486
2533.31848,0.00486
2531.25887,0.00453
2529.19926,0.00405
2527.13965,0.00393
2525.08004,0.00427
2523.02043,0.00437
2520.96083,0.00405
2518.90122,0.00400
2516.84161,0.00420
2514.78200,0.00397
2512.72239,0.00346
2510.66278,0.00332
2508.60317,0.00341
2506.54357,0.00352
2504.48396,0.00386
2502.42435,0.00408
2500.36474,0.00407
2498.30513,0.00408
2496.24552,0.00406
2494.18592,0.00399
2492.12631,0.00388
2490.06670,0.00394
2488.00709,0.00423
2485.94748,0.00423
2483.88787,0.00390
2481.82826,0.00373
2479.76866,0.00371
2477.70905,0.00368
2475.64944,0.00366
2473.58983,0.00356
2471.53022,0.00355
2469.47061,0.00365
2467.41100,0.00363
2465.35140,0.00363
2463.29179,0.00379
2461.23218,0.00394
2459.17257,0.00420
2457.11296,0.00459
2455.05335,0.00471
2452.99374,0.00446
2450.93414,0.00417
2448.87453,0.00389
2446.81492,0.00362
2444.75531,0.00352
2442.69570,0.00358
2440.63609,0.00364
2438.57649,0.00352
2436.51688,0.00327
2434.45727,0.00333
2432.39766,0.00377
2430.33805,0.00382
2428.27844,0.00335
2426.21883,0.00314
2424.15923,0.00325
2422.09962,0.00345
2420.04001,0.00369
2417.98040,0.00380
2415.92079,0.00372
2413.86118,0.00357
2411.80157,0.00356
2409.74197,0.00373
2407.68236,0.00376
2405.62275,0.00358
2403.56314,0.00329
2401.50353,0.00308
2399.44392,0.00319
2397.38431,0.00322
2395.32471,0.00290
2393.26510,0.00268
2391.20549,0.00281
2389.14588,0.00311
2387.08627,0.00319
2385.02666,0.00302
2382.96706,0.00295
2380.90745,0.00312
2378.84784,0.00332
2376.78823,0.00351
2374.72862,0.00365
2372.66901,0.00340
2370.60940,0.00290
2368.54980,0.00248
2366.49019,0.00242
2364.43058,0.00276
2362.37097,0.00308
2360.31136,0.00319
2358.25175,0.00317
2356.19214,0.00325
2354.13254,0.00353
2352.07293,0.00389
2350.01332,0.00413
2347.95371,0.00423
2345.89410,0.00410
2343.83449,0.00379
2341.77488,0.00346
2339.71528,0.00298
2337.65567,0.00262
2335.59606,0.00288
2333.53645,0.00340
2331.47684,0.00366
2329.41723,0.00393
2327.35763,0.00417
2325.29802,0.00416
2323.23841,0.00434
2321.17880,0.00484
2319.11919,0.00501
2317.05958,0.00486
2314.99997,0.00469
2312.94037,0.00443
2310.88076,0.00430
2308.82115,0.00440
2306.76154,0.00431
2304.70193,0.00397
2302.64232,0.00400
2300.58271,0.00438
2298.52311,0.00441
2296.46350,0.00418
2294.40389,0.00404
2292.34428,0.00389
2290.28467,0.00378
2288.22506,0.00374
2286.16545,0.00367
2284.10585,0.00383
2282.04624,0.00430
2279.98663,0.00447
2277.92702,0.00433
2275.86741,0.00419
2273.80780,0.00378
2271.74820,0.00354
2269.68859,0.00391
2267.62898,0.00410
2265.56937,0.00401
2263.50976,0.00396
2261.45015,0.00370
2259.39054,0.00342
2257.33094,0.00326
2255.27133,0.00290
2253.21172,0.00258
2251.15211,0.00278
2249.09250,0.00343
2247.03289,0.00398
2244.97328,0.00384
2242.91368,0.00314
2240.85407,0.00299
2238.79446,0.00346
2236.73485,0.00339
2234.67524,0.00295
2232.61563,0.00264
2230.55602,0.00234
2228.49642,0.00222
2226.43681,0.00247
2224.37720,0.00298
2222.31759,0.00363
2220.25798,0.00440
2218.19837,0.00462
2216.13877,0.00407
2214.07916,0.00385
2212.01955,0.00428
2209.95994,0.00454
2207.90033,0.00429
2205.84072,0.00384
2203.78111,0.00373
2201.72151,0.00390
2199.66190,0.00380
2197.60229,0.00351
2195.54268,0.00356
2193.48307,0.00376
2191.42346,0.00385
2189.36385,0.00429
2187.30425,0.00460
2185.24464,0.00408
2183.18503,0.00329
2181.12542,0.00265
2179.06581,0.00270
2177.00620,0.00328
2174.94659,0.00353
2172.88699,0.00375
2170.82738,0.00393
2168.76777,0.00380
2166.70816,0.00367
2164.64855,0.00349
2162.58894,0.00309
2160.52934,0.00217
2158.46973,0.00093
2156.41012,0.00071
2154.35051,0.00148
2152.29090,0.00187
2150.23129,0.00199
2148.17168,0.00267
2146.11208,0.00327
2144.05247,0.00336
2141.99286,0.00326
2139.93325,0.00279
2137.87364,0.00194
2135.81403,0.00094
2133.75442,0.00034
2131.69482,0.00074
2129.63521,0.00162
2127.57560,0.00254
2125.51599,0.00322
2123.45638,0.00347
2121.39677,0.00338
2119.33716,0.00282
2117.27756,0.00240
2115.21795,0.00273
2113.15834,0.00309
2111.09873,0.00326
2109.03912,0.00366
2106.97951,0.00369
2104.91991,0.00301
2102.86030,0.00263
2100.80069,0.00279
2098.74108,0.00271
2096.68147,0.00240
2094.62186,0.00236
2092.56225,0.00250
2090.50265,0.00270
2088.44304,0.00304
2086.38343,0.00328
2084.32382,0.00282
2082.26421,0.00217
2080.20460,0.00259
2078.14499,0.00356
2076.08539,0.00383
2074.02578,0.00358
2071.96617,0.00334
2069.90656,0.00331
2067.84695,0.00336
2065.78734,0.00323
2063.72773,0.00310
2061.66813,0.00274
2059.60852,0.00207
2057.54891,0.00208
2055.48930,0.00292
2053.42969,0.00371
2051.37008,0.00385
2049.31048,0.00302
2047.25087,0.00223
2045.19126,0.00230
2043.13165,0.00215
2041.07204,0.00219
2039.01243,0.00324
2036.95282,0.00357
2034.89322,0.00265
2032.83361,0.00209
2030.77400,0.00247
2028.71439,0.00306
2026.65478,0.00327
2024.59517,0.00251
2022.53556,0.00136
2020.47596,0.00137
2018.41635,0.00175
2016.35674,0.00112
2014.29713,0.00010
2012.23752,0.00006
2010.17791,0.00103
2008.11830,0.00155
2006.05870,0.00139
2003.99909,0.00148
2001.93948,0.00200
1999.87987,0.00228
1997.82026,0.00223
1995.76065,0.00248
1993.70105,0.00318
1991.64144,0.00383
1989.58183,0.00411
1987.52222,0.00457
1985.46261,0.00524
1983.40300,0.00558
1981.34339,0.00598
1979.28379,0.00589
1977.22418,0.00410
1975.16457,0.00194
1973.10496,0.00144
1971.04535,0.00257
1968.98574,0.00368
1966.92613,0.00355
1964.86653,0.00263
1962.80692,0.00197
1960.74731,0.00185
1958.68770,0.00178
1956.62809,0.00131
1954.56848,0.00073
1952.50887,0.00092
1950.44927,0.00181
1948.38966,0.00254
1946.33005,0.00295
1944.27044,0.00342
1942.21083,0.00357
1940.15122,0.00302
1938.09162,0.00240
1936.03201,0.00208
1933.97240,0.00206
1931.91279,0.00215
1929.85318,0.00194
1927.79357,0.00165
1925.73396,0.00198
1923.67436,0.00264
1921.61475,0.00267
1919.55514,0.00227
1917.49553,0.00219
1915.43592,0.00225
1913.37631,0.00221
1911.31670,0.00205
1909.25710,0.00188
1907.19749,0.00198
1905.13788,0.00209
1903.07827,0.00193
1901.01866,0.00172
1898.95905,0.00173
1896.89944,0.00217
1894.83984,0.00264
1892.78023,0.00275
1890.72062,0.00265
1888.66101,0.00234
1886.60140,0.00210
1884.54179,0.00220
1882.48219,0.00225
1880.42258,0.00179
1878.36297,0.00124
1876.30336,0.00148
1874.24375,0.00229
1872.18414,0.00282
1870.12453,0.00289
1868.06493,0.00259
1866.00532,0.00224
1863.94571,0.00224
1861.88610,0.00245
1859.82649,0.00237
1857.76688,0.00201
1855.70727,0.00187
1853.64767,0.00206
1851.58806,0.00223
1849.52845,0.00219
1847.46884,0.00219
1845.40923,0.00245
1843.34962,0.00277
1841.29002,0.00275
1839.23041,0.00250
1837.17080,0.00239
1835.11119,0.00244
1833.05158,0.00252
1830.99197,0.00264
1828.93236,0.00273
1826.87276,0.00262
1824.81315,0.00243
1822.75354,0.00233
1820.69393,0.00211
1818.63432,0.00168
1816.57471,0.00139
1814.51510,0.00147
1812.45550,0.00172
1810.39589,0.00194
1808.33628,0.00206
1806.27667,0.00217
1804.21706,0.00235
1802.15745,0.00252
1800.09784,0.00260
1798.03824,0.00253
1795.97863,0.00244
1793.91902,0.00238
1791.85941,0.00234
1789.79980,0.00229
1787.74019,0.00231
1785.68059,0.00228
1783.62098,0.00205
1781.56137,0.00188
1779.50176,0.00198
1777.44215,0.00226
1775.38254,0.00248
1773.32293,0.00246
1771.26333,0.00238
1769.20372,0.00249
1767.14411,0.00264
1765.08450,0.00277
1763.02489,0.00276
1760.96528,0.00254
1758.90567,0.00250
1756.84607,0.00263
1754.78646,0.00265
1752.72685,0.00275
1750.66724,0.00303
1748.60763,0.00313
1746.54802,0.00302
1744.48841,0.00303
1742.42881,0.00310
1740.36920,0.00308
1738.30959,0.00309
1736.24998,0.00330
1734.19037,0.00352
1732.13076,0.00328
1730.07116,0.00296
1728.01155,0.00297
1725.95194,0.00310
1723.89233,0.00309
1721.83272,0.00295
1719.77311,0.00284
1717.71350,0.00277
1715.65390,0.00258
1713.59429,0.00230
1711.53468,0.00211
1709.47507,0.00209
1707.41546,0.00225
1705.35585,0.00248
1703.29624,0.00276
1701.23664,0.00312
1699.17703,0.00338
1697.11742,0.00346
1695.05781,0.00352
1692.99820,0.00360
1690.93859,0.00386
1688.87898,0.00437
1686.81938,0.00494
1684.75977,0.00574
1682.70016,0.00679
1680.64055,0.00765
1678.58094,0.00847
1676.52133,0.00935
1674.46173,0.01024
1672.40212,0.01117
1670.34251,0.01244
1668.28290,0.01407
1666.22329,0.01558
1664.16368,0.01699
1662.10407,0.01855
1660.04447,0.02003
1657.98486,0.02127
1655.92525,0.02247
1653.86564,0.02416
1651.80603,0.02638
1649.74642,0.02822
1647.68681,0.03031
1645.62721,0.03275
1643.56760,0.03483
1641.50799,0.03681
1639.44838,0.03883
1637.38877,0.04055
1635.32916,0.04148
1633.26955,0.04160
1631.20995,0.04138
1629.15034,0.04073
1627.09073,0.03951
1625.03112,0.03789
1622.97151,0.03594
1620.91190,0.03408
1618.85230,0.03220
1616.79269,0.02957
1614.73308,0.02704
1612.67347,0.02534
1610.61386,0.02374
1608.55425,0.02200
1606.49464,0.02029
1604.43504,0.01868
1602.37543,0.01720
1600.31582,0.01590
1598.25621,0.01483
1596.19660,0.01399
1594.13699,0.01337
1592.07738,0.01289
1590.01778,0.01255
1587.95817,0.01246
1585.89856,0.01254
1583.83895,0.01277
1581.77934,0.01315
1579.71973,0.01372
1577.66012,0.01459
1575.60052,0.01576
1573.54091,0.01682
1571.48130,0.01773
1569.42169,0.01886
1567.36208,0.02012
1565.30247,0.02127
1563.24287,0.02237
1561.18326,0.02343
1559.12365,0.02468
1557.06404,0.02598
1555.00443,0.02708
1552.94482,0.02817
1550.88521,0.02925
1548.82561,0.03044
1546.76600,0.03177
1544.70639,0.03307
1542.64678,0.03416
1540.58717,0.03485
1538.52756,0.03515
1536.46795,0.03539
1534.40835,0.03547
1532.34874,0.03520
1530.28913,0.03476
1528.22952,0.03407
1526.16991,0.03311
1524.11030,0.03223
1522.05069,0.03124
1519.99109,0.03005
1517.93148,0.02895
1515.87187,0.02760
1513.81226,0.02612
1511.75265,0.02486
1509.69304,0.02386
1507.63344,0.02269
1505.57383,0.02115
1503.51422,0.02009
1501.45461,0.01928
1499.39500,0.01846
1497.33539,0.01757
1495.27578,0.01660
1493.21618,0.01582
1491.15657,0.01523
1489.09696,0.01462
1487.03735,0.01426
1484.97774,0.01438
1482.91813,0.01495
1480.85852,0.01592
1478.79892,0.01703
1476.73931,0.01790
1474.67970,0.01831
1472.62009,0.01816
1470.56048,0.01788
1468.50087,0.01810
1466.44126,0.01891
1464.38166,0.02001
1462.32205,0.02074
1460.26244,0.02084
1458.20283,0.02032
1456.14322,0.01946
1454.08361,0.01893
1452.02401,0.01869
1449.96440,0.01847
1447.90479,0.01815
1445.84518,0.01798
1443.78557,0.01802
1441.72596,0.01808
1439.66635,0.01812
1437.60675,0.01811
1435.54714,0.01802
1433.48753,0.01792
1431.42792,0.01760
1429.36831,0.01707
1427.30870,0.01667
1425.24909,0.01658
1423.18949,0.01679
1421.12988,0.01730
1419.07027,0.01785
1417.01066,0.01801
1414.95105,0.01775
1412.89144,0.01727
1410.83183,0.01660
1408.77223,0.01573
1406.71262,0.01478
1404.65301,0.01392
1402.59340,0.01329
1400.53379,0.01286
1398.47418,0.01254
1396.41458,0.01231
1394.35497,0.01220
1392.29536,0.01226
1390.23575,0.01246
1388.17614,0.01276
1386.11653,0.01320
1384.05692,0.01366
1381.99732,0.01407
1379.93771,0.01452
1377.87810,0.01505
1375.81849,0.01558
1373.75888,0.01603
1371.69927,0.01627
1369.63966,0.01630
1367.58006,0.01614
1365.52045,0.01589
1363.46084,0.01562
1361.40123,0.01527
1359.34162,0.01490
1357.28201,0.01462
1355.22240,0.01434
1353.16280,0.01398
1351.10319,0.01363
1349.04358,0.01341
1346.98397,0.01324
1344.92436,0.01300
1342.86475,0.01278
1340.80515,0.01270
1338.74554,0.01264
1336.68593,0.01251
1334.62632,0.01237
1332.56671,0.01223
1330.50710,0.01204
1328.44749,0.01183
1326.38789,0.01164
1324.32828,0.01148
1322.26867,0.01142
1320.20906,0.01151
1318.14945,0.01169
1316.08984,0.01181
1314.03023,0.01182
1311.97063,0.01181
1309.91102,0.01193
1307.85141,0.01206
1305.79180,0.01218
1303.73219,0.01235
1301.67258,0.01240
1299.61297,0.01234
1297.55337,0.01234
1295.49376,0.01247
1293.43415,0.01266
1291.37454,0.01279
1289.31493,0.01286
1287.25532,0.01298
1285.19572,0.01313
1283.13611,0.01323
1281.07650,0.01328
1279.01689,0.01338
1276.95728,0.01352
1274.89767,0.01358
1272.83806,0.01368
1270.77846,0.01405
1268.71885,0.01480
1266.65924,0.01590
1264.59963,0.01695
1262.54002,0.01761
1260.48041,0.01778
1258.42080,0.01759
1256.36120,0.01724
1254.30159,0.01677
1252.24198,0.01623
1250.18237,0.01573
1248.12276,0.01527
1246.06315,0.01492
1244.00354,0.01476
1241.94394,0.01483
1239.88433,0.01494
1237.82472,0.01486
1235.76511,0.01463
1233.70550,0.01423
1231.64589,0.01357
1229.58629,0.01278
1227.52668,0.01203
1225.46707,0.01143
1223.40746,0.01104
1221.34785,0.01087
1219.28824,0.01094
1217.22863,0.01125
1215.16903,0.01165
1213.10942,0.01193
1211.04981,0.01212
1208.99020,0.01230
1206.93059,0.01253
1204.87098,0.01302
1202.81137,0.01389
1200.75177,0.01481
1198.69216,0.01522
1196.63255,0.01485
1194.57294,0.01403
1192.51333,0.01318
1190.45372,0.01243
1188.39411,0.01186
1186.33451,0.01142
1184.27490,0.01107
1182.21529,0.01087
1180.15568,0.01087
1178.09607,0.01115
1176.03646,0.01165
1173.97686,0.01221
1171.91725,0.01276
1169.85764,0.01314
1167.79803,0.01313
1165.73842,0.01268
1163.67881,0.01197
1161.61920,0.01130
1159.55960,0.01077
1157.49999,0.01031
1155.44038,0.00981
1153.38077,0.00929
1151.32116,0.00886
1149.26155,0.00853
1147.20194,0.00824
1145.14234,0.00796
1143.08273,0.00772
1141.02312,0.00756
1138.96351,0.00742
1136.90390,0.00728
1134.84429,0.00729
1132.78468,0.00743
1130.72508,0.00766
1128.66547,0.00804
1126.60586,0.00851
1124.54625,0.00895
1122.48664,0.00921
1120.42703,0.00923
1118.36743,0.00917
1116.30782,0.00911
1114.24821,0.00906
1112.18860,0.00904
1110.12899,0.00899
1108.06938,0.00884
1106.00977,0.00852
1103.95017,0.00814
1101.89056,0.00787
1099.83095,0.00760
1097.77134,0.00728
1095.71173,0.00711
1093.65212,0.00720
1091.59251,0.00733
1089.53291,0.00737
1087.47330,0.00740
1085.41369,0.00748
1083.35408,0.00754
1081.29447,0.00753
1079.23486,0.00750
1077.17525,0.00746
1075.11565,0.00733
1073.05604,0.00725
1070.99643,0.00729
1068.93682,0.00729
1066.87721,0.00720
1064.81760,0.00710
1062.75800,0.00703
1060.69839,0.00694
1058.63878,0.00670
1056.57917,0.00637
1054.51956,0.00617
1052.45995,0.00617
1050.40034,0.00621
1048.34074,0.00616
1046.28113,0.00610
1044.22152,0.00609
1042.16191,0.00612
1040.10230,0.00617
1038.04269,0.00622
1035.98308,0.00631
1033.92348,0.00642
1031.86387,0.00642
1029.80426,0.00635
1027.74465,0.00629
1025.68504,0.00625
1023.62543,0.00620
1021.56582,0.00613
1019.50622,0.00597
1017.44661,0.00575
1015.38700,0.00562
1013.32739,0.00556
1011.26778,0.00548
1009.20817,0.00549
1007.14857,0.00558
1005.08896,0.00565
1003.02935,0.00565
1000.96974,0.00560
998.91013,0.00554
996.85052,0.00547
994.79091,0.00544
992.73131,0.00553
990.67170,0.00570
988.61209,0.00582
986.55248,0.00591
984.49287,0.00597
982.43326,0.00597
980.37365,0.00596
978.31405,0.00600
976.25444,0.00600
974.19483,0.00596
972.13522,0.00595
970.07561,0.00596
968.01600,0.00596
965.95639,0.00597
963.89679,0.00605
961.83718,0.00614
959.77757,0.00624
957.71796,0.00632
955.65835,0.00627
953.59874,0.00606
951.53914,0.00587
949.47953,0.00580
947.41992,0.00572
945.36031,0.00554
943.30070,0.00538
941.24109,0.00536
939.18148,0.00534
937.12188,0.00522
935.06227,0.00524
933.00266,0.00551
930.94305,0.00586
928.88344,0.00609
926.82383,0.00610
924.76422,0.00588
922.70462,0.00558
920.64501,0.00537
918.58540,0.00518
916.52579,0.00494
914.46618,0.00474
912.40657,0.00471
910.34696,0.00473
908.28736,0.00471
906.22775,0.00469
904.16814,0.00461
902.10853,0.00448
900.04892,0.00444
897.98931,0.00448
895.92971,0.00457
893.87010,0.00471
891.81049,0.00473
889.75088,0.00460
887.69127,0.00446
885.63166,0.00437
883.57205,0.00434
881.51245,0.00436
879.45284,0.00441
877.39323,0.00438
875.33362,0.00432
873.27401,0.00431
871.21440,0.00426
869.15479,0.00415
867.09519,0.00408
865.03558,0.00406
862.97597,0.00401
860.91636,0.00388
858.85675,0.00379
856.79714,0.00385
854.73753,0.00393
852.67793,0.00388
850.61832,0.00388
848.55871,0.00405
846.49910,0.00417
844.43949,0.00414
842.37988,0.00419
840.32028,0.00428
838.26067,0.00438
836.20106,0.00456
834.14145,0.00475
832.08184,0.00482
830.02223,0.00471
827.96262,0.00455
825.90302,0.00448
823.84341,0.00436
821.78380,0.00423
819.72419,0.00424
817.66458,0.00423
815.60497,0.00417
813.54536,0.00422
811.48576,0.00432
809.42615,0.00436
807.36654,0.00437
805.30693,0.00444
803.24732,0.00458
801.18771,0.00462
799.12810,0.00453
797.06850,0.00452
795.00889,0.00459
792.94928,0.00466
790.88967,0.00481
788.83006,0.00485
786.77045,0.00468
784.71085,0.00464
782.65124,0.00486
780.59163,0.00502
778.53202,0.00500
776.47241,0.00509
774.41280,0.00534
772.35319,0.00553
770.29359,0.00555
768.23398,0.00552
766.17437,0.00556
764.11476,0.00570
762.05515,0.00587
759.99554,0.00597
757.93593,0.00596
755.87633,0.00597
753.81672,0.00610
751.75711,0.00637
749.69750,0.00659
747.63789,0.00664
745.57828,0.00671
743.51867,0.00689
741.45907,0.00700
739.39946,0.00708
737.33985,0.00731
735.28024,0.00773
733.22063,0.00832
731.16102,0.00892
729.10142,0.00928
727.04181,0.00934
724.98220,0.00928
722.92259,0.00920
720.86298,0.00903
718.80337,0.00888
716.74376,0.00890
714.68416,0.00903
712.62455,0.00916
710.56494,0.00925
708.50533,0.00929
706.44572,0.00937
704.38611,0.00957
702.32650,0.00976
700.26690,0.00998
698.20729,0.01035
696.14768,0.01077
694.08807,0.01108
692.02846,0.01130
689.96885,0.01153
687.90924,0.01170
685.84964,0.01177
683.79003,0.01188
681.73042,0.01201
679.67081,0.01202
677.61120,0.01197
675.55159,0.01182
673.49199,0.01160
671.43238,0.01151
669.37277,0.01145
667.31316,0.01121
665.25355,0.01093
663.19394,0.01066
661.13433,0.01036
659.07473,0.01021
657.01512,0.01025
654.95551,0.01023
652.89590,0.00997
650.83629,0.00964
648.77668,0.00942
646.71707,0.00936
644.65747,0.00937
642.59786,0.00916
640.53825,0.00881
638.47864,0.00864
636.41903,0.00862
634.35942,0.00854
632.29981,0.00844
630.24021,0.00842
628.18060,0.00836
626.12099,0.00825
624.06138,0.00825
622.00177,0.00821
619.94216,0.00804
617.88256,0.00787
615.82295,0.00786
613.76334,0.00794
611.70373,0.00793
609.64412,0.00784
607.58451,0.00776
605.52490,0.00771
603.46530,0.00779
601.40569,0.00799
599.34608,0.00795
597.28647,0.00775
595.22686,0.00781
593.16725,0.00808
591.10764,0.00824
589.04804,0.00835
586.98843,0.00863
584.92882,0.00893
582.86921,0.00907
580.80960,0.00921
578.74999,0.00961
576.69039,0.01010
574.63078,0.01036
572.57117,0.01041
570.51156,0.01038
568.45195,0.01037
566.39234,0.01013
564.33273,0.00965
562.27313,0.00926
560.21352,0.00899
558.15391,0.00887
556.09430,0.00882
554.03469,0.00857
551.97508,0.00827
549.91547,0.00813
547.85587,0.00803
545.79626,0.00779
543.73665,0.00755
541.67704,0.00759
539.61743,0.00776
537.55782,0.00769
535.49821,0.00750
533.43861,0.00746
531.37900,0.00736
529.31939,0.00728
527.25978,0.00752
525.20017,0.00788
523.14056,0.00804
521.08096,0.00798
519.02135,0.00781
516.96174,0.00768
514.90213,0.00767
512.84252,0.00766
510.78291,0.00755
508.72330,0.00736
506.66370,0.00721
504.60409,0.00714
502.54448,0.00718
500.48487,0.00719
498.42526,0.00692
496.36565,0.00638
494.30604,0.00601
492.24644,0.00602
490.18683,0.00607
488.12722,0.00594
486.06761,0.00584
484.00800,0.00584
481.94839,0.00588
479.88878,0.00588
477.82918,0.00575
475.76957,0.00553
473.70996,0.00528
471.65035,0.00497
469.59074,0.00485
467.53113,0.00495
465.47153,0.00494
463.41192,0.00473
461.35231,0.00444
459.29270,0.00433
457.23309,0.00450
455.17348,0.00464
453.11387,0.00472
451.05427,0.00497
448.99466,0.00508
446.93505,0.00492
444.87544,0.00498
442.81583,0.00526
440.75622,0.00536
438.69661,0.00528
436.63701,0.00518
434.57740,0.00502
432.51779,0.00476
430.45818,0.00466
428.39857,0.00461
426.33896,0.00431
424.27935,0.00417
422.21975,0.00428
420.16014,0.00424
418.10053,0.00424
416.04092,0.00431
413.98131,0.00420
411.92170,0.00394
409.86210,0.00353
407.80249,0.00329
405.74288,0.00352
403.68327,0.00403
401.62366,0.00446
399.56405,0.00462
397.50444,0.00460
395.44484,0.00455
393.38523,0.00437
391.32562,0.00408
389.26601,0.00384
387.20640,0.00385
385.14679,0.00423
383.08718,0.00460
381.02758,0.00469
378.96797,0.00466
376.90836,0.00429
374.84875,0.00353
372.78914,0.00314
370.72953,0.00371
368.66992,0.00468
366.61032,0.00482
364.55071,0.00449
362.49110,0.00455
360.43149,0.00509
358.37188,0.00568
356.31227,0.00524
354.25267,0.00429
352.19306,0.00451
350.13345,0.00438
348.07384,0.00337
346.01423,0.00311
343.95462,0.00423
341.89501,0.00650
339.83541,0.00780
337.77580,0.00746
335.71619,0.00580
333.65658,0.00184
331.59697,-0.00066
329.53736,0.00151
327.47775,0.00586
325.41815,0.00683
323.35854,0.00491
321.29893,0.00349
319.23932,0.00240
317.17971,0.00149
315.12010,0.00179
313.06049,0.00386
311.00089,0.00701
308.94128,0.01078
306.88167,0.01456
304.82206,0.02035
302.76245,0.03765
300.70284,0.05245
298.64324,0.04164
296.58363,0.02169
294.52402,0.01553
292.46441,0.02975
290.40480,0.04720
288.34519,0.05296
286.28558,0.14314
284.22598,0.10530
282.16637,0.10923
280.10676,0.07054
278.04715,0.01899
275.98754,-0.03241
273.92793,-0.10763
271.86832,-0.09165
269.80872,-0.10107
267.74911,-0.07096
265.68950,-0.20596
263.62989,-0.00810
261.57028,0.02555
259.51067,-0.01760
257.45106,-0.01940
255.39146,0.06850
253.33185,0.16364
251.27224,0.16762
249.21263,0.10459
247.15302,0.01664
245.09341,0.05549
243.03381,-0.03233
240.97420,-0.08549
238.91459,-0.03114
236.85498,-0.04595
234.79537,-0.14872
232.73576,-0.03288
230.67615,-0.04065
228.61655,0.00245
226.55694,0.04485
224.49733,-0.00345
222.43772,0.04278
220.37811,0.02442
218.31850,-0.10460
216.25889,-0.03045
214.19929,-0.04035
212.13968,-0.01961
210.08007,-0.00083
208.02046,-0.02066
205.96085,0.06543
203.90124,-0.01290
201.84163,0.01463
199.78203,0.06641
197.72242,0.03871
195.66281,-0.02531
193.60320,-0.09211
191.54359,-0.09289
189.48398,-0.05901
187.42438,-0.06982
185.36477,-0.04730
183.30516,-0.03594
181.24555,-0.03051
179.18594,-0.01726
177.12633,0.00225
175.06672,-0.00588
173.00712,-0.05133
170.94751,-0.03178
168.88790,-0.03497
166.82829,-0.05910
164.76868,-0.07035
162.70907,0.00659
160.64946,0.08772
158.58986,0.04723
156.53025,0.07880
154.47064,0.05230
152.41103,0.01522
150.35142,-0.01200
148.29181,0.00002
146.23220,0.02153
144.17260,0.01487
142.11299,0.01193
140.05338,0.12381
137.99377,0.10401
135.93416,-0.01248
133.87455,-0.10460
131.81495,-0.06573
129.75534,-0.01183
127.69573,0.00433
125.63612,-0.04597
123.57651,-0.00039
121.51690,0.04398
119.45729,0.02442
117.39769,-0.00615
115.33808,-0.01154
113.27847,-0.01200
111.21886,-0.00558
109.15925,0.00674
107.09964,0.01904
105.04003,0.07203
102.98043,0.06238
100.92082,0.00417
98.86121,0.02143
96.80160,0.04034
94.74199,0.02952
92.68238,0.05572
90.62277,0.01410
88.56317,-0.00702
86.50356,-0.00647
84.44395,-0.02077
82.38434,-0.04414
80.32473,-0.00273
78.26512,0.00159
76.20552,-0.03026
74.14591,0.00176
72.08630,-0.01705
70.02669,-0.01021
67.96708,0.00496
65.90747,0.01032
63.84786,0.00614
61.78826,-0.00643
59.72865,0.00230
57.66904,-0.00060
55.60943,0.00561
53.54982,0.00535
51.49021,0.01517
49.43060,-0.00390
47.37100,0.00838
45.31139,0.00956
43.25178,0.00579
41.19217,0.01278
39.13256,0.01181
37.07295,0.00939
35.01334,0.00261
32.95374,0.00518
30.89413,0.00405
28.83452,0.00218
26.77491,-0.01368
24.71530,-0.00428
22.65569,-0.00346
20.59609,-0.00252
18.53648,0.00377
16.47687,0.00345
14.41726,-0.00292
12.35765,-0.00494
10.29804,-0.00061
8.23843,0.00043
6.17883,0.00017
4.11922,-0.00004
2.05961,-0.00004
0.00000,0.00000
