3997.70013,0.00514
3995.64052,0.00488
3993.58092,0.00431
3991.52131,0.00388
3989.46170,0.00379
3987.40209,0.00372
3985.34248,0.00345
3983.28287,0.00295
3981.22327,0.00246
3979.16366,0.00235
3977.10405,0.00320
3975.04444,0.00414
3972.98483,0.00398
3970.92522,0.00372
3968.86561,0.00382
3966.80601,0.00359
3964.74640,0.00338
3962.68679,0.00371
3960.62718,0.00388
3958.56757,0.00369
3956.50796,0.00380
3954.44835,0.00416
3952.38875,0.00450
3950.32914,0.00461
3948.26953,0.00403
3946.20992,0.00304
3944.15031,0.00289
3942.09070,0.00364
3940.03109,0.00423
3937.97149,0.00437
3935.91188,0.00429
3933.85227,0.00449
3931.79266,0.00529
3929.73305,0.00584
3927.67344,0.00574
3925.61384,0.00530
3923.55423,0.00480
3921.49462,0.00474
3919.43501,0.00491
3917.37540,0.00526
3915.31579,0.00584
3913.25618,0.00592
3911.19658,0.00541
3909.13697,0.00497
3907.07736,0.00510
3905.01775,0.00560
3902.95814,0.00565
3900.89853,0.00513
3898.83892,0.00512
3896.77932,0.00535
3894.71971,0.00489
3892.66010,0.00428
3890.60049,0.00424
3888.54088,0.00467
3886.48127,0.00523
3884.42166,0.00552
3882.36206,0.00550
3880.30245,0.00527
3878.24284,0.00489
3876.18323,0.00500
3874.12362,0.00564
3872.06401,0.00602
3870.00441,0.00562
3867.94480,0.00474
3865.88519,0.00417
3863.82558,0.00421
3861.76597,0.00425
3859.70636,0.00428
3857.64675,0.00468
3855.58715,0.00522
3853.52754,0.00550
3851.46793,0.00508
3849.40832,0.00434
3847.34871,0.00376
3845.28910,0.00376
3843.22949,0.00430
3841.16989,0.00493
3839.11028,0.00592
3837.05067,0.00634
3834.99106,0.00498
3832.93145,0.00349
3830.87184,0.00330
3828.81223,0.00404
3826.75263,0.00503
3824.69302,0.00566
3822.63341,0.00572
3820.57380,0.00589
3818.51419,0.00623
3816.45458,0.00581
3814.39498,0.00491
3812.33537,0.00456
3810.27576,0.00458
3808.21615,0.00475
3806.15654,0.00535
3804.09693,0.00602
3802.03732,0.00590
3799.97772,0.00488
3797.91811,0.00379
3795.85850,0.00294
3793.79889,0.00270
3791.73928,0.00290
3789.67967,0.00294
3787.62006,0.00309
3785.56046,0.00336
3783.50085,0.00353
3781.44124,0.00408
3779.38163,0.00477
3777.32202,0.00481
3775.26241,0.00451
3773.20280,0.00429
3771.14320,0.00413
3769.08359,0.00374
3767.02398,0.00273
3764.96437,0.00211
3762.90476,0.00238
3760.84515,0.00277
3758.78555,0.00378
3756.72594,0.00501
3754.66633,0.00521
3752.60672,0.00460
3750.54711,0.00375
3748.48750,0.00338
3746.42789,0.00366
3744.36829,0.00394
3742.30868,0.00394
3740.24907,0.00378
3738.18946,0.00347
3736.12985,0.00320
3734.07024,0.00322
3732.01063,0.00367
3729.95103,0.00370
3727.89142,0.00332
3725.83181,0.00335
3723.77220,0.00324
3721.71259,0.00275
3719.65298,0.00244
3717.59337,0.00262
3715.53377,0.00321
3713.47416,0.00379
3711.41455,0.00401
3709.35494,0.00395
3707.29533,0.00407
3705.23572,0.00425
3703.17612,0.00437
3701.11651,0.00456
3699.05690,0.00431
3696.99729,0.00343
3694.93768,0.00271
3692.87807,0.00282
3690.81846,0.00362
3688.75886,0.00420
3686.69925,0.00404
3684.63964,0.00398
3682.58003,0.00422
3680.52042,0.00433
3678.46081,0.00428
3676.40120,0.00422
3674.34160,0.00384
3672.28199,0.00311
3670.22238,0.00288
3668.16277,0.00343
3666.10316,0.00362
3664.04355,0.00316
3661.98394,0.00268
3659.92434,0.00300
3657.86473,0.00380
3655.80512,0.00407
3653.74551,0.00395
3651.68590,0.00392
3649.62629,0.00405
3647.56669,0.00455
3645.50708,0.00479
3643.44747,0.00458
3641.38786,0.00446
3639.32825,0.00402
3637.26864,0.00331
3635.20903,0.00347
3633.14943,0.00403
3631.08982,0.00411
3629.03021,0.00401
3626.97060,0.00400
3624.91099,0.00406
3622.85138,0.00438
3620.79177,0.00451
3618.73217,0.00407
3616.67256,0.00388
3614.61295,0.00419
3612.55334,0.00462
3610.49373,0.00474
3608.43412,0.00431
3606.37451,0.00409
3604.31491,0.00429
3602.25530,0.00421
3600.19569,0.00361
3598.13608,0.00315
3596.07647,0.00344
3594.01686,0.00360
3591.95726,0.00313
3589.89765,0.00277
3587.83804,0.00252
3585.77843,0.00243
3583.71882,0.00262
3581.65921,0.00279
3579.59960,0.00289
3577.54000,0.00303
3575.48039,0.00340
3573.42078,0.00359
3571.36117,0.00312
3569.30156,0.00281
3567.24195,0.00324
3565.18234,0.00355
3563.12274,0.00328
3561.06313,0.00294
3559.00352,0.00292
3556.94391,0.00313
3554.88430,0.00337
3552.82469,0.00361
3550.76508,0.00371
3548.70548,0.00354
3546.64587,0.00360
3544.58626,0.00399
3542.52665,0.00404
3540.46704,0.00368
3538.40743,0.00353
3536.34783,0.00364
3534.28822,0.00363
3532.22861,0.00386
3530.16900,0.00426
3528.10939,0.00422
3526.04978,0.00383
3523.99017,0.00369
3521.93057,0.00425
3519.87096,0.00498
3517.81135,0.00500
3515.75174,0.00441
3513.69213,0.00409
3511.63252,0.00434
3509.57291,0.00449
3507.51331,0.00412
3505.45370,0.00388
3503.39409,0.00355
3501.33448,0.00264
3499.27487,0.00241
3497.21526,0.00341
3495.15565,0.00413
3493.09605,0.00382
3491.03644,0.00344
3488.97683,0.00343
3486.91722,0.00337
3484.85761,0.00345
3482.79800,0.00370
3480.73840,0.00356
3478.67879,0.00314
3476.61918,0.00283
3474.55957,0.00274
3472.49996,0.00312
3470.44035,0.00380
3468.38074,0.00388
3466.32114,0.00320
3464.26153,0.00273
3462.20192,0.00289
3460.14231,0.00329
3458.08270,0.00339
3456.02309,0.00326
3453.96348,0.00334
3451.90388,0.00363
3449.84427,0.00394
3447.78466,0.00420
3445.72505,0.00448
3443.66544,0.00499
3441.60583,0.00546
3439.54622,0.00536
3437.48662,0.00485
3435.42701,0.00448
3433.36740,0.00401
3431.30779,0.00369
3429.24818,0.00406
3427.18857,0.00443
3425.12897,0.00435
3423.06936,0.00421
3421.00975,0.00452
3418.95014,0.00492
3416.89053,0.00487
3414.83092,0.00479
3412.77131,0.00468
3410.71171,0.00419
3408.65210,0.00392
3406.59249,0.00403
3404.53288,0.00430
3402.47327,0.00477
3400.41366,0.00492
3398.35405,0.00468
3396.29445,0.00459
3394.23484,0.00465
3392.17523,0.00473
3390.11562,0.00475
3388.05601,0.00484
3385.99640,0.00512
3383.93679,0.00523
3381.87719,0.00508
3379.81758,0.00495
3377.75797,0.00501
3375.69836,0.00511
3373.63875,0.00513
3371.57914,0.00526
3369.51954,0.00545
3367.45993,0.00539
3365.40032,0.00510
3363.34071,0.00463
3361.28110,0.00412
3359.22149,0.00408
3357.16188,0.00495
3355.10228,0.00599
3353.04267,0.00617
3350.98306,0.00559
3348.92345,0.00506
3346.86384,0.00466
3344.80423,0.00436
3342.74462,0.00438
3340.68502,0.00454
3338.62541,0.00469
3336.56580,0.00474
3334.50619,0.00474
3332.44658,0.00467
3330.38697,0.00476
3328.32736,0.00527
3326.26776,0.00534
3324.20815,0.00469
3322.14854,0.00437
3320.08893,0.00447
3318.02932,0.00458
3315.96971,0.00493
3313.91011,0.00530
3311.85050,0.00518
3309.79089,0.00482
3307.73128,0.00466
3305.67167,0.00480
3303.61206,0.00499
3301.55245,0.00493
3299.49285,0.00482
3297.43324,0.00495
3295.37363,0.00502
3293.31402,0.00507
3291.25441,0.00516
3289.19480,0.00525
3287.13519,0.00512
3285.07559,0.00460
3283.01598,0.00444
3280.95637,0.00485
3278.89676,0.00536
3276.83715,0.00569
3274.77754,0.00565
3272.71793,0.00518
3270.65833,0.00476
3268.59872,0.00472
3266.53911,0.00484
3264.47950,0.00477
3262.41989,0.00444
3260.36028,0.00411
3258.30068,0.00395
3256.24107,0.00388
3254.18146,0.00411
3252.12185,0.00464
3250.06224,0.00491
3248.00263,0.00489
3245.94302,0.00487
3243.88342,0.00494
3241.82381,0.00524
3239.76420,0.00540
3237.70459,0.00503
3235.64498,0.00470
3233.58537,0.00479
3231.52576,0.00495
3229.46616,0.00501
3227.40655,0.00509
3225.34694,0.00523
3223.28733,0.00545
3221.22772,0.00535
3219.16811,0.00457
3217.10850,0.00398
3215.04890,0.00418
3212.98929,0.00451
3210.92968,0.00459
3208.87007,0.00482
3206.81046,0.00550
3204.75085,0.00618
3202.69125,0.00626
3200.63164,0.00564
3198.57203,0.00515
3196.51242,0.00534
3194.45281,0.00566
3192.39320,0.00562
3190.33359,0.00535
3188.27399,0.00537
3186.21438,0.00565
3184.15477,0.00562
3182.09516,0.00538
3180.03555,0.00538
3177.97594,0.00533
3175.91633,0.00517
3173.85673,0.00532
3171.79712,0.00550
3169.73751,0.00539
3167.67790,0.00503
3165.61829,0.00473
3163.55868,0.00490
3161.49907,0.00509
3159.43947,0.00498
3157.37986,0.00498
3155.32025,0.00493
3153.26064,0.00475
3151.20103,0.00475
3149.14142,0.00502
3147.08182,0.00535
3145.02221,0.00518
3142.96260,0.00467
3140.90299,0.00454
3138.84338,0.00479
3136.78377,0.00503
3134.72416,0.00516
3132.66456,0.00525
3130.60495,0.00531
3128.54534,0.00520
3126.48573,0.00509
3124.42612,0.00511
3122.36651,0.00492
3120.30690,0.00479
3118.24730,0.00513
3116.18769,0.00544
3114.12808,0.00541
3112.06847,0.00540
3110.00886,0.00556
3107.94925,0.00580
3105.88965,0.00598
3103.83004,0.00601
3101.77043,0.00598
3099.71082,0.00596
3097.65121,0.00605
3095.59160,0.00661
3093.53199,0.00746
3091.47239,0.00792
3089.41278,0.00814
3087.35317,0.00853
3085.29356,0.00896
3083.23395,0.00918
3081.17434,0.00914
3079.11473,0.00914
3077.05513,0.00909
3074.99552,0.00887
3072.93591,0.00902
3070.87630,0.00952
3068.81669,0.01004
3066.75708,0.01064
3064.69747,0.01110
3062.63787,0.01112
3060.57826,0.01082
3058.51865,0.01061
3056.45904,0.01094
3054.39943,0.01155
3052.33982,0.01190
3050.28022,0.01225
3048.22061,0.01282
3046.16100,0.01333
3044.10139,0.01390
3042.04178,0.01476
3039.98217,0.01533
3037.92256,0.01572
3035.86296,0.01657
3033.80335,0.01781
3031.74374,0.01910
3029.68413,0.02035
3027.62452,0.02170
3025.56491,0.02331
3023.50530,0.02513
3021.44570,0.02716
3019.38609,0.02973
3017.32648,0.03281
3015.26687,0.03650
3013.20726,0.04131
3011.14765,0.04713
3009.08804,0.05384
3007.02844,0.06218
3004.96883,0.07268
3002.90922,0.08501
3000.84961,0.09871
2998.79000,0.11344
2996.73039,0.12892
2994.67079,0.14427
2992.61118,0.15779
2990.55157,0.16850
2988.49196,0.17693
2986.43235,0.18402
2984.37274,0.19020
2982.31313,0.19531
2980.25353,0.19948
2978.19392,0.20327
2976.13431,0.20742
2974.07470,0.21262
2972.01509,0.21949
2969.95548,0.22892
2967.89587,0.24155
2965.83627,0.25779
2963.77666,0.27820
2961.71705,0.30249
2959.65744,0.32821
2957.59783,0.35101
2955.53822,0.36499
2953.47861,0.36489
2951.41901,0.35113
2949.35940,0.33095
2947.29979,0.31307
2945.24018,0.30260
2943.18057,0.30071
2941.12096,0.30741
2939.06136,0.32330
2937.00175,0.34908
2934.94214,0.38516
2932.88253,0.43197
2930.82292,0.49084
2928.76331,0.56443
2926.70370,0.65785
2924.64410,0.77991
2922.58449,0.93874
2920.52488,1.13204
2918.46527,1.32741
2916.40566,1.43236
2914.34605,1.35617
2912.28644,1.15641
2910.22684,0.95873
2908.16723,0.81508
2906.10762,0.71977
2904.04801,0.65705
2901.98840,0.61517
2899.92879,0.58505
2897.86918,0.56055
2895.80958,0.53861
2893.74997,0.51711
2891.69036,0.49494
2889.63075,0.47232
2887.57114,0.44927
2885.51153,0.42537
2883.45193,0.40102
2881.39232,0.37793
2879.33271,0.35802
2877.27310,0.34289
2875.21349,0.33287
2873.15388,0.32468
2871.09427,0.31256
2869.03467,0.29465
2866.97506,0.27676
2864.91545,0.26760
2862.85584,0.27288
2860.79623,0.29468
2858.73662,0.33484
2856.67701,0.40113
2854.61741,0.51395
2852.55780,0.70126
2850.49819,0.94294
2848.43858,1.07748
2846.37897,0.94985
2844.31936,0.69498
2842.25975,0.48555
2840.20015,0.35293
2838.14054,0.27191
2836.08093,0.21916
2834.02132,0.18225
2831.96171,0.15523
2829.90210,0.13441
2827.84250,0.11765
2825.78289,0.10427
2823.72328,0.09360
2821.66367,0.08497
2819.60406,0.07805
2817.54445,0.07224
2815.48484,0.06709
2813.42524,0.06254
2811.36563,0.05849
2809.30602,0.05485
2807.24641,0.05172
2805.18680,0.04884
2803.12719,0.04585
2801.06758,0.04281
2799.00798,0.04008
2796.94837,0.03778
2794.88876,0.03574
2792.82915,0.03395
2790.76954,0.03235
2788.70993,0.03076
2786.65032,0.02921
2784.59072,0.02793
2782.53111,0.02694
2780.47150,0.02608
2778.41189,0.02527
2776.35228,0.02458
2774.29267,0.02395
2772.23307,0.02317
2770.17346,0.02230
2768.11385,0.02147
2766.05424,0.02056
2763.99463,0.01947
2761.93502,0.01852
2759.87541,0.01818
2757.81581,0.01828
2755.75620,0.01818
2753.69659,0.01770
2751.63698,0.01717
2749.57737,0.01696
2747.51776,0.01713
2745.45815,0.01754
2743.39855,0.01808
2741.33894,0.01860
2739.27933,0.01895
2737.21972,0.01924
2735.16011,0.01957
2733.10050,0.01973
2731.04089,0.01966
2728.98129,0.01947
2726.92168,0.01898
2724.86207,0.01825
2722.80246,0.01767
2720.74285,0.01731
2718.68324,0.01723
2716.62364,0.01730
2714.56403,0.01720
2712.50442,0.01683
2710.44481,0.01628
2708.38520,0.01567
2706.32559,0.01521
2704.26598,0.01493
2702.20638,0.01466
2700.14677,0.01419
2698.08716,0.01352
2696.02755,0.01309
2693.96794,0.01303
2691.90833,0.01301
2689.84872,0.01280
2687.78912,0.01261
2685.72951,0.01267
2683.66990,0.01289
2681.61029,0.01309
2679.55068,0.01313
2677.49107,0.01307
2675.43146,0.01322
2673.37186,0.01356
2671.31225,0.01402
2669.25264,0.01457
2667.19303,0.01496
2665.13342,0.01518
2663.07381,0.01524
2661.01421,0.01515
2658.95460,0.01508
2656.89499,0.01508
2654.83538,0.01502
2652.77577,0.01475
2650.71616,0.01451
2648.65655,0.01453
2646.59695,0.01462
2644.53734,0.01447
2642.47773,0.01414
2640.41812,0.01403
2638.35851,0.01445
2636.29890,0.01487
2634.23929,0.01477
2632.17969,0.01439
2630.12008,0.01397
2628.06047,0.01361
2626.00086,0.01320
2623.94125,0.01251
2621.88164,0.01178
2619.82203,0.01126
2617.76243,0.01096
2615.70282,0.01085
2613.64321,0.01075
2611.58360,0.01040
2609.52399,0.00984
2607.46438,0.00948
2605.40478,0.00927
2603.34517,0.00892
2601.28556,0.00853
2599.22595,0.00819
2597.16634,0.00784
2595.10673,0.00738
2593.04712,0.00724
2590.98752,0.00773
2588.92791,0.00804
2586.86830,0.00762
2584.80869,0.00671
2582.74908,0.00579
2580.68947,0.00539
2578.62986,0.00545
2576.57026,0.00561
2574.51065,0.00580
2572.45104,0.00601
2570.39143,0.00610
2568.33182,0.00597
2566.27221,0.00572
2564.21260,0.00538
2562.15300,0.00523
2560.09339,0.00551
2558.03378,0.00592
2555.97417,0.00598
2553.91456,0.00589
2551.85495,0.00599
2549.79535,0.00576
2547.73574,0.00496
2545.67613,0.00420
2543.61652,0.00392
2541.55691,0.00397
2539.49730,0.00409
2537.43769,0.00424
2535.37809,0.00426
2533.31848,0.00425
2531.25887,0.00434
2529.19926,0.00454
2527.13965,0.00501
2525.08004,0.00542
2523.02043,0.00531
2520.96083,0.00482
2518.90122,0.00428
2516.84161,0.00395
2514.78200,0.00381
2512.72239,0.00377
2510.66278,0.00367
2508.60317,0.00329
2506.54357,0.00296
2504.48396,0.00302
2502.42435,0.00305
2500.36474,0.00294
2498.30513,0.00318
2496.24552,0.00343
2494.18592,0.00312
2492.12631,0.00297
2490.06670,0.00325
2488.00709,0.00304
2485.94748,0.00258
2483.88787,0.00267
2481.82826,0.00297
2479.76866,0.00321
2477.70905,0.00340
2475.64944,0.00351
2473.58983,0.00349
2471.53022,0.00320
2469.47061,0.00280
2467.41100,0.00267
2465.35140,0.00277
2463.29179,0.00259
2461.23218,0.00215
2459.17257,0.00202
2457.11296,0.00238
2455.05335,0.00283
2452.99374,0.00300
2450.93414,0.00302
2448.87453,0.00283
2446.81492,0.00225
2444.75531,0.00180
2442.69570,0.00196
2440.63609,0.00245
2438.57649,0.00267
2436.51688,0.00228
2434.45727,0.00166
2432.39766,0.00140
2430.33805,0.00167
2428.27844,0.00219
2426.21883,0.00271
2424.15923,0.00302
2422.09962,0.00304
2420.04001,0.00313
2417.98040,0.00320
2415.92079,0.00302
2413.86118,0.00289
2411.80157,0.00288
2409.74197,0.00282
2407.68236,0.00273
2405.62275,0.00274
2403.56314,0.00278
2401.50353,0.00274
2399.44392,0.00263
2397.38431,0.00266
2395.32471,0.00269
2393.26510,0.00251
2391.20549,0.00231
2389.14588,0.00224
2387.08627,0.00234
2385.02666,0.00242
2382.96706,0.00235
2380.90745,0.00215
2378.84784,0.00196
2376.78823,0.00200
2374.72862,0.00231
2372.66901,0.00269
2370.60940,0.00272
2368.54980,0.00220
2366.49019,0.00192
2364.43058,0.00225
2362.37097,0.00255
2360.31136,0.00302
2358.25175,0.00347
2356.19214,0.00346
2354.13254,0.00361
2352.07293,0.00405
2350.01332,0.00435
2347.95371,0.00452
2345.89410,0.00454
2343.83449,0.00451
2341.77488,0.00460
2339.71528,0.00464
2337.65567,0.00438
2335.59606,0.00400
2333.53645,0.00404
2331.47684,0.00433
2329.41723,0.00452
2327.35763,0.00513
2325.29802,0.00616
2323.23841,0.00634
2321.17880,0.00559
2319.11919,0.00501
2317.05958,0.00469
2314.99997,0.00459
2312.94037,0.00466
2310.88076,0.00477
2308.82115,0.00497
2306.76154,0.00500
2304.70193,0.00482
2302.64232,0.00449
2300.58271,0.00402
2298.52311,0.00375
2296.46350,0.00389
2294.40389,0.00421
2292.34428,0.00460
2290.28467,0.00489
2288.22506,0.00495
2286.16545,0.00496
2284.10585,0.00468
2282.04624,0.00422
2279.98663,0.00447
2277.92702,0.00528
2275.86741,0.00544
2273.80780,0.00454
2271.74820,0.00375
2269.68859,0.00382
2267.62898,0.00383
2265.56937,0.00295
2263.50976,0.00180
2261.45015,0.00166
2259.39054,0.00254
2257.33094,0.00296
2255.27133,0.00233
2253.21172,0.00196
2251.15211,0.00214
2249.09250,0.00191
2247.03289,0.00162
2244.97328,0.00181
2242.91368,0.00216
2240.85407,0.00229
2238.79446,0.00203
2236.73485,0.00189
2234.67524,0.00248
2232.61563,0.00299
2230.55602,0.00297
2228.49642,0.00270
2226.43681,0.00183
2224.37720,0.00077
2222.31759,0.00075
2220.25798,0.00150
2218.19837,0.00183
2216.13877,0.00176
2214.07916,0.00139
2212.01955,0.00060
2209.95994,0.00043
2207.90033,0.00138
2205.84072,0.00216
2203.78111,0.00219
2201.72151,0.00186
2199.66190,0.00146
2197.60229,0.00181
2195.54268,0.00250
2193.48307,0.00276
2191.42346,0.00339
2189.36385,0.00405
2187.30425,0.00353
2185.24464,0.00253
2183.18503,0.00187
2181.12542,0.00154
2179.06581,0.00225
2177.00620,0.00311
2174.94659,0.00248
2172.88699,0.00120
2170.82738,0.00146
2168.76777,0.00329
2166.70816,0.00419
2164.64855,0.00371
2162.58894,0.00297
2160.52934,0.00137
2158.46973,-0.00060
2156.41012,-0.00115
2154.35051,-0.00045
2152.29090,-0.00010
2150.23129,-0.00047
2148.17168,-0.00023
2146.11208,0.00005
2144.05247,-0.00059
2141.99286,-0.00137
2139.93325,-0.00195
2137.87364,-0.00234
2135.81403,-0.00234
2133.75442,-0.00195
2131.69482,-0.00161
2129.63521,-0.00140
2127.57560,-0.00082
2125.51599,0.00012
2123.45638,0.00072
2121.39677,0.00082
2119.33716,0.00152
2117.27756,0.00267
2115.21795,0.00267
2113.15834,0.00171
2111.09873,0.00125
2109.03912,0.00166
2106.97951,0.00210
2104.91991,0.00202
2102.86030,0.00188
2100.80069,0.00193
2098.74108,0.00195
2096.68147,0.00196
2094.62186,0.00175
2092.56225,0.00151
2090.50265,0.00139
2088.44304,0.00101
2086.38343,0.00081
2084.32382,0.00116
2082.26421,0.00199
2080.20460,0.00318
2078.14499,0.00367
2076.08539,0.00314
2074.02578,0.00264
2071.96617,0.00211
2069.90656,0.00148
2067.84695,0.00148
2065.78734,0.00158
2063.72773,0.00117
2061.66813,0.00122
2059.60852,0.00212
2057.54891,0.00268
2055.48930,0.00213
2053.42969,0.00135
2051.37008,0.00136
2049.31048,0.00151
2047.25087,0.00156
2045.19126,0.00212
2043.13165,0.00251
2041.07204,0.00276
2039.01243,0.00324
2036.95282,0.00285
2034.89322,0.00166
2032.83361,0.00099
2030.77400,0.00054
2028.71439,0.00034
2026.65478,0.00096
2024.59517,0.00146
2022.53556,0.00094
2020.47596,0.00028
2018.41635,0.00032
2016.35674,0.00050
2014.29713,0.00093
2012.23752,0.00193
2010.17791,0.00252
2008.11830,0.00179
2006.05870,0.00017
2003.99909,-0.00088
2001.93948,-0.00083
1999.87987,-0.00060
1997.82026,-0.00083
1995.76065,-0.00065
1993.70105,0.00037
1991.64144,0.00123
1989.58183,0.00146
1987.52222,0.00103
1985.46261,0.00038
1983.40300,0.00045
1981.34339,0.00125
1979.28379,0.00201
1977.22418,0.00195
1975.16457,0.00105
1973.10496,0.00006
1971.04535,-0.00061
1968.98574,-0.00132
1966.92613,-0.00170
1964.86653,-0.00157
1962.80692,-0.00166
1960.74731,-0.00149
1958.68770,-0.00070
1956.62809,-0.00012
1954.56848,0.00003
1952.50887,0.00006
1950.44927,0.00034
1948.38966,0.00078
1946.33005,0.00084
1944.27044,0.00053
1942.21083,0.00031
1940.15122,0.00032
1938.09162,0.00037
1936.03201,0.00055
1933.97240,0.00089
1931.91279,0.00106
1929.85318,0.00084
1927.79357,0.00044
1925.73396,0.00054
1923.67436,0.00111
1921.61475,0.00155
1919.55514,0.00177
1917.49553,0.00207
1915.43592,0.00210
1913.37631,0.00161
1911.31670,0.00120
1909.25710,0.00132
1907.19749,0.00147
1905.13788,0.00118
1903.07827,0.00092
1901.01866,0.00115
1898.95905,0.00157
1896.89944,0.00169
1894.83984,0.00172
1892.78023,0.00192
1890.72062,0.00214
1888.66101,0.00225
1886.60140,0.00204
1884.54179,0.00175
1882.48219,0.00167
1880.42258,0.00161
1878.36297,0.00147
1876.30336,0.00154
1874.24375,0.00188
1872.18414,0.00198
1870.12453,0.00160
1868.06493,0.00127
1866.00532,0.00150
1863.94571,0.00187
1861.88610,0.00194
1859.82649,0.00183
1857.76688,0.00187
1855.70727,0.00205
1853.64767,0.00207
1851.58806,0.00186
1849.52845,0.00160
1847.46884,0.00152
1845.40923,0.00156
1843.34962,0.00137
1841.29002,0.00119
1839.23041,0.00139
1837.17080,0.00175
1835.11119,0.00195
1833.05158,0.00199
1830.99197,0.00199
1828.93236,0.00202
1826.87276,0.00196
1824.81315,0.00184
1822.75354,0.00188
1820.69393,0.00203
1818.63432,0.00207
1816.57471,0.00206
1814.51510,0.00213
1812.45550,0.00220
1810.39589,0.00230
1808.33628,0.00251
1806.27667,0.00263
1804.21706,0.00273
1802.15745,0.00293
1800.09784,0.00307
1798.03824,0.00304
1795.97863,0.00279
1793.91902,0.00247
1791.85941,0.00244
1789.79980,0.00272
1787.74019,0.00297
1785.68059,0.00297
1783.62098,0.00279
1781.56137,0.00274
1779.50176,0.00285
1777.44215,0.00292
1775.38254,0.00287
1773.32293,0.00280
1771.26333,0.00287
1769.20372,0.00313
1767.14411,0.00339
1765.08450,0.00353
1763.02489,0.00369
1760.96528,0.00391
1758.90567,0.00406
1756.84607,0.00421
1754.78646,0.00438
1752.72685,0.00458
1750.66724,0.00479
1748.60763,0.00482
1746.54802,0.00472
1744.48841,0.00471
1742.42881,0.00484
1740.36920,0.00495
1738.30959,0.00502
1736.24998,0.00518
1734.19037,0.00536
1732.13076,0.00542
1730.07116,0.00537
1728.01155,0.00513
1725.95194,0.00480
1723.89233,0.00476
1721.83272,0.00491
1719.77311,0.00493
1717.71350,0.00489
1715.65390,0.00482
1713.59429,0.00473
1711.53468,0.00467
1709.47507,0.00452
1707.41546,0.00437
1705.35585,0.00437
1703.29624,0.00440
1701.23664,0.00449
1699.17703,0.00461
1697.11742,0.00460
1695.05781,0.00455
1692.99820,0.00459
1690.93859,0.00466
1688.87898,0.00466
1686.81938,0.00469
1684.75977,0.00483
1682.70016,0.00490
1680.64055,0.00484
1678.58094,0.00478
1676.52133,0.00483
1674.46173,0.00491
1672.40212,0.00489
1670.34251,0.00489
1668.28290,0.00492
1666.22329,0.00493
1664.16368,0.00500
1662.10407,0.00517
1660.04447,0.00536
1657.98486,0.00551
1655.92525,0.00558
1653.86564,0.00552
1651.80603,0.00544
1649.74642,0.00558
1647.68681,0.00579
1645.62721,0.00575
1643.56760,0.00553
1641.50799,0.00543
1639.44838,0.00545
1637.38877,0.00547
1635.32916,0.00542
1633.26955,0.00539
1631.20995,0.00548
1629.15034,0.00560
1627.09073,0.00565
1625.03112,0.00563
1622.97151,0.00568
1620.91190,0.00579
1618.85230,0.00578
1616.79269,0.00553
1614.73308,0.00522
1612.67347,0.00504
1610.61386,0.00494
1608.55425,0.00494
1606.49464,0.00496
1604.43504,0.00493
1602.37543,0.00497
1600.31582,0.00505
1598.25621,0.00502
1596.19660,0.00497
1594.13699,0.00499
1592.07738,0.00509
1590.01778,0.00519
1587.95817,0.00528
1585.89856,0.00541
1583.83895,0.00563
1581.77934,0.00588
1579.71973,0.00603
1577.66012,0.00608
1575.60052,0.00607
1573.54091,0.00597
1571.48130,0.00586
1569.42169,0.00574
1567.36208,0.00564
1565.30247,0.00563
1563.24287,0.00574
1561.18326,0.00593
1559.12365,0.00608
1557.06404,0.00607
1555.00443,0.00610
1552.94482,0.00621
1550.88521,0.00634
1548.82561,0.00654
1546.76600,0.00676
1544.70639,0.00694
1542.64678,0.00711
1540.58717,0.00726
1538.52756,0.00728
1536.46795,0.00734
1534.40835,0.00739
1532.34874,0.00726
1530.28913,0.00705
1528.22952,0.00701
1526.16991,0.00722
1524.11030,0.00743
1522.05069,0.00752
1519.99109,0.00775
1517.93148,0.00813
1515.87187,0.00843
1513.81226,0.00865
1511.75265,0.00891
1509.69304,0.00936
1507.63344,0.01021
1505.57383,0.01128
1503.51422,0.01219
1501.45461,0.01336
1499.39500,0.01541
1497.33539,0.01900
1495.27578,0.02464
1493.21618,0.03196
1491.15657,0.04235
1489.09696,0.05568
1487.03735,0.06645
1484.97774,0.07248
1482.91813,0.07659
1480.85852,0.08209
1478.79892,0.09272
1476.73931,0.11855
1474.67970,0.16569
1472.62009,0.20103
1470.56048,0.19037
1468.50087,0.17204
1466.44126,0.17556
1464.38166,0.19910
1462.32205,0.20674
1460.26244,0.17981
1458.20283,0.14052
1456.14322,0.11219
1454.08361,0.09728
1452.02401,0.08598
1449.96440,0.07553
1447.90479,0.06634
1445.84518,0.05889
1443.78557,0.05335
1441.72596,0.04917
1439.66635,0.04609
1437.60675,0.04343
1435.54714,0.04050
1433.48753,0.03760
1431.42792,0.03471
1429.36831,0.03171
1427.30870,0.02889
1425.24909,0.02631
1423.18949,0.02386
1421.12988,0.02165
1419.07027,0.01935
1417.01066,0.01725
1414.95105,0.01581
1412.89144,0.01485
1410.83183,0.01435
1408.77223,0.01426
1406.71262,0.01452
1404.65301,0.01533
1402.59340,0.01695
1400.53379,0.02018
1398.47418,0.02706
1396.41458,0.04034
1394.35497,0.06114
1392.29536,0.08188
1390.23575,0.09324
1388.17614,0.09210
1386.11653,0.07886
1384.05692,0.06137
1381.99732,0.04850
1379.93771,0.04346
1377.87810,0.04272
1375.81849,0.04207
1373.75888,0.04416
1371.69927,0.05791
1369.63966,0.09005
1367.58006,0.12914
1365.52045,0.14295
1363.46084,0.11823
1361.40123,0.07885
1359.34162,0.05207
1357.28201,0.04022
1355.22240,0.03579
1353.16280,0.03386
1351.10319,0.03231
1349.04358,0.03056
1346.98397,0.02858
1344.92436,0.02640
1342.86475,0.02419
1340.80515,0.02202
1338.74554,0.02001
1336.68593,0.01842
1334.62632,0.01717
1332.56671,0.01597
1330.50710,0.01481
1328.44749,0.01377
1326.38789,0.01286
1324.32828,0.01211
1322.26867,0.01154
1320.20906,0.01106
1318.14945,0.01066
1316.08984,0.01040
1314.03023,0.01021
1311.97063,0.01003
1309.91102,0.00996
1307.85141,0.00994
1305.79180,0.00989
1303.73219,0.00985
1301.67258,0.00982
1299.61297,0.00964
1297.55337,0.00934
1295.49376,0.00907
1293.43415,0.00888
1291.37454,0.00875
1289.31493,0.00864
1287.25532,0.00844
1285.19572,0.00824
1283.13611,0.00815
1281.07650,0.00811
1279.01689,0.00808
1276.95728,0.00813
1274.89767,0.00825
1272.83806,0.00850
1270.77846,0.00910
1268.71885,0.01023
1266.65924,0.01177
1264.59963,0.01324
1262.54002,0.01409
1260.48041,0.01407
1258.42080,0.01337
1256.36120,0.01245
1254.30159,0.01171
1252.24198,0.01142
1250.18237,0.01156
1248.12276,0.01217
1246.06315,0.01361
1244.00354,0.01622
1241.94394,0.02054
1239.88433,0.02741
1237.82472,0.03732
1235.76511,0.04937
1233.70550,0.06120
1231.64589,0.06996
1229.58629,0.07320
1227.52668,0.07014
1225.46707,0.06305
1223.40746,0.05536
1221.34785,0.04880
1219.28824,0.04332
1217.22863,0.03855
1215.16903,0.03429
1213.10942,0.03048
1211.04981,0.02723
1208.99020,0.02456
1206.93059,0.02234
1204.87098,0.02046
1202.81137,0.01901
1200.75177,0.01807
1198.69216,0.01754
1196.63255,0.01721
1194.57294,0.01681
1192.51333,0.01624
1190.45372,0.01558
1188.39411,0.01509
1186.33451,0.01491
1184.27490,0.01490
1182.21529,0.01487
1180.15568,0.01486
1178.09607,0.01497
1176.03646,0.01526
1173.97686,0.01574
1171.91725,0.01625
1169.85764,0.01668
1167.79803,0.01706
1165.73842,0.01739
1163.67881,0.01766
1161.61920,0.01766
1159.55960,0.01726
1157.49999,0.01674
1155.44038,0.01636
1153.38077,0.01605
1151.32116,0.01572
1149.26155,0.01544
1147.20194,0.01520
1145.14234,0.01492
1143.08273,0.01456
1141.02312,0.01406
1138.96351,0.01347
1136.90390,0.01303
1134.84429,0.01288
1132.78468,0.01283
1130.72508,0.01277
1128.66547,0.01282
1126.60586,0.01287
1124.54625,0.01268
1122.48664,0.01237
1120.42703,0.01217
1118.36743,0.01212
1116.30782,0.01235
1114.24821,0.01275
1112.18860,0.01310
1110.12899,0.01337
1108.06938,0.01363
1106.00977,0.01377
1103.95017,0.01370
1101.89056,0.01362
1099.83095,0.01358
1097.77134,0.01348
1095.71173,0.01332
1093.65212,0.01315
1091.59251,0.01298
1089.53291,0.01281
1087.47330,0.01264
1085.41369,0.01246
1083.35408,0.01227
1081.29447,0.01200
1079.23486,0.01170
1077.17525,0.01141
1075.11565,0.01113
1073.05604,0.01088
1070.99643,0.01062
1068.93682,0.01035
1066.87721,0.01021
1064.81760,0.01022
1062.75800,0.01016
1060.69839,0.01003
1058.63878,0.01005
1056.57917,0.01019
1054.51956,0.01021
1052.45995,0.01016
1050.40034,0.01024
1048.34074,0.01037
1046.28113,0.01037
1044.22152,0.01024
1042.16191,0.01014
1040.10230,0.01015
1038.04269,0.01027
1035.98308,0.01044
1033.92348,0.01067
1031.86387,0.01096
1029.80426,0.01123
1027.74465,0.01134
1025.68504,0.01124
1023.62543,0.01118
1021.56582,0.01126
1019.50622,0.01135
1017.44661,0.01140
1015.38700,0.01133
1013.32739,0.01098
1011.26778,0.01045
1009.20817,0.00988
1007.14857,0.00929
1005.08896,0.00877
1003.02935,0.00837
1000.96974,0.00805
998.91013,0.00784
996.85052,0.00779
994.79091,0.00780
992.73131,0.00794
990.67170,0.00824
988.61209,0.00850
986.55248,0.00864
984.49287,0.00867
982.43326,0.00856
980.37365,0.00835
978.31405,0.00823
976.25444,0.00820
974.19483,0.00828
972.13522,0.00850
970.07561,0.00877
968.01600,0.00908
965.95639,0.00961
963.89679,0.01061
961.83718,0.01189
959.77757,0.01304
957.71796,0.01417
955.65835,0.01545
953.59874,0.01666
951.53914,0.01741
949.47953,0.01747
947.41992,0.01707
945.36031,0.01638
943.30070,0.01543
941.24109,0.01437
939.18148,0.01342
937.12188,0.01279
935.06227,0.01263
933.00266,0.01294
930.94305,0.01369
928.88344,0.01488
926.82383,0.01634
924.76422,0.01745
922.70462,0.01756
920.64501,0.01667
918.58540,0.01522
916.52579,0.01372
914.46618,0.01246
912.40657,0.01138
910.34696,0.01032
908.28736,0.00930
906.22775,0.00842
904.16814,0.00782
902.10853,0.00747
900.04892,0.00727
897.98931,0.00721
895.92971,0.00741
893.87010,0.00817
891.81049,0.00941
889.75088,0.01034
887.69127,0.01016
885.63166,0.00902
883.57205,0.00786
881.51245,0.00714
879.45284,0.00679
877.39323,0.00662
875.33362,0.00646
873.27401,0.00624
871.21440,0.00609
869.15479,0.00606
867.09519,0.00612
865.03558,0.00628
862.97597,0.00643
860.91636,0.00650
858.85675,0.00654
856.79714,0.00668
854.73753,0.00686
852.67793,0.00690
850.61832,0.00683
848.55871,0.00689
846.49910,0.00706
844.43949,0.00705
842.37988,0.00668
840.32028,0.00618
838.26067,0.00589
836.20106,0.00584
834.14145,0.00591
832.08184,0.00597
830.02223,0.00605
827.96262,0.00636
825.90302,0.00691
823.84341,0.00756
821.78380,0.00810
819.72419,0.00841
817.66458,0.00856
815.60497,0.00874
813.54536,0.00896
811.48576,0.00919
809.42615,0.00928
807.36654,0.00922
805.30693,0.00927
803.24732,0.00942
801.18771,0.00941
799.12810,0.00913
797.06850,0.00863
795.00889,0.00805
792.94928,0.00750
790.88967,0.00696
788.83006,0.00645
786.77045,0.00605
784.71085,0.00574
782.65124,0.00538
780.59163,0.00511
778.53202,0.00502
776.47241,0.00499
774.41280,0.00496
772.35319,0.00497
770.29359,0.00503
768.23398,0.00513
766.17437,0.00521
764.11476,0.00522
762.05515,0.00517
759.99554,0.00506
757.93593,0.00508
755.87633,0.00522
753.81672,0.00530
751.75711,0.00534
749.69750,0.00553
747.63789,0.00592
745.57828,0.00635
743.51867,0.00679
741.45907,0.00753
739.39946,0.00883
737.33985,0.01134
735.28024,0.01793
733.22063,0.03360
731.16102,0.05401
729.10142,0.06019
727.04181,0.04875
724.98220,0.03906
722.92259,0.04403
720.86298,0.06024
718.80337,0.06500
716.74376,0.04660
714.68416,0.02560
712.62455,0.01503
710.56494,0.01097
708.50533,0.00893
706.44572,0.00760
704.38611,0.00671
702.32650,0.00610
700.26690,0.00561
698.20729,0.00525
696.14768,0.00501
694.08807,0.00484
692.02846,0.00464
689.96885,0.00437
687.90924,0.00420
685.84964,0.00421
683.79003,0.00419
681.73042,0.00398
679.67081,0.00373
677.61120,0.00361
675.55159,0.00365
673.49199,0.00376
671.43238,0.00377
669.37277,0.00360
667.31316,0.00342
665.25355,0.00342
663.19394,0.00342
661.13433,0.00334
659.07473,0.00324
657.01512,0.00320
654.95551,0.00313
652.89590,0.00294
650.83629,0.00266
648.77668,0.00255
646.71707,0.00269
644.65747,0.00288
642.59786,0.00299
640.53825,0.00300
638.47864,0.00297
636.41903,0.00294
634.35942,0.00307
632.29981,0.00325
630.24021,0.00328
628.18060,0.00315
626.12099,0.00289
624.06138,0.00269
622.00177,0.00263
619.94216,0.00271
617.88256,0.00297
615.82295,0.00313
613.76334,0.00305
611.70373,0.00301
609.64412,0.00313
607.58451,0.00335
605.52490,0.00354
603.46530,0.00366
601.40569,0.00361
599.34608,0.00321
597.28647,0.00276
595.22686,0.00263
593.16725,0.00268
591.10764,0.00275
589.04804,0.00302
586.98843,0.00342
584.92882,0.00343
582.86921,0.00306
580.80960,0.00279
578.74999,0.00273
576.69039,0.00274
574.63078,0.00288
572.57117,0.00316
570.51156,0.00336
568.45195,0.00326
566.39234,0.00300
564.33273,0.00290
562.27313,0.00297
560.21352,0.00298
558.15391,0.00294
556.09430,0.00299
554.03469,0.00313
551.97508,0.00316
549.91547,0.00305
547.85587,0.00295
545.79626,0.00277
543.73665,0.00264
541.67704,0.00279
539.61743,0.00300
537.55782,0.00296
535.49821,0.00277
533.43861,0.00270
531.37900,0.00280
529.31939,0.00285
527.25978,0.00285
525.20017,0.00294
523.14056,0.00313
521.08096,0.00328
519.02135,0.00311
516.96174,0.00268
514.90213,0.00244
512.84252,0.00262
510.78291,0.00299
508.72330,0.00315
506.66370,0.00304
504.60409,0.00291
502.54448,0.00289
500.48487,0.00289
498.42526,0.00291
496.36565,0.00284
494.30604,0.00260
492.24644,0.00247
490.18683,0.00259
488.12722,0.00278
486.06761,0.00288
484.00800,0.00294
481.94839,0.00296
479.88878,0.00300
477.82918,0.00303
475.76957,0.00299
473.70996,0.00297
471.65035,0.00301
469.59074,0.00294
467.53113,0.00276
465.47153,0.00282
463.41192,0.00307
461.35231,0.00328
459.29270,0.00339
457.23309,0.00343
455.17348,0.00355
453.11387,0.00354
451.05427,0.00324
448.99466,0.00296
446.93505,0.00292
444.87544,0.00298
442.81583,0.00307
440.75622,0.00318
438.69661,0.00334
436.63701,0.00356
434.57740,0.00355
432.51779,0.00329
430.45818,0.00315
428.39857,0.00324
426.33896,0.00336
424.27935,0.00322
422.21975,0.00303
420.16014,0.00318
418.10053,0.00327
416.04092,0.00317
413.98131,0.00329
411.92170,0.00341
409.86210,0.00341
407.80249,0.00351
405.74288,0.00352
403.68327,0.00349
401.62366,0.00358
399.56405,0.00356
397.50444,0.00331
395.44484,0.00329
393.38523,0.00358
391.32562,0.00348
389.26601,0.00324
387.20640,0.00372
385.14679,0.00450
383.08718,0.00480
381.02758,0.00496
378.96797,0.00526
376.90836,0.00542
374.84875,0.00496
372.78914,0.00429
370.72953,0.00374
368.66992,0.00257
366.61032,0.00183
364.55071,0.00289
362.49110,0.00500
360.43149,0.00639
358.37188,0.00650
356.31227,0.00593
354.25267,0.00516
352.19306,0.00455
350.13345,0.00420
348.07384,0.00431
346.01423,0.00520
343.95462,0.00675
341.89501,0.00819
339.83541,0.00898
337.77580,0.00870
335.71619,0.00731
333.65658,0.00752
331.59697,0.01140
329.53736,0.01591
327.47775,0.01635
325.41815,0.01237
323.35854,0.00529
321.29893,-0.00127
319.23932,-0.00101
317.17971,0.00378
315.12010,0.00979
313.06049,0.01327
311.00089,0.01315
308.94128,0.00983
306.88167,0.00495
304.82206,0.00784
302.76245,0.01917
300.70284,0.01129
298.64324,0.00628
296.58363,0.01803
294.52402,0.02073
292.46441,-0.01288
290.40480,-0.07032
288.34519,-0.08284
286.28558,-0.04334
284.22598,-0.02172
282.16637,-0.00155
280.10676,-0.01363
278.04715,-0.02005
275.98754,-0.02248
273.92793,-0.04273
271.86832,-0.15045
269.80872,-0.13031
267.74911,-0.06934
265.68950,-0.02904
263.62989,0.02847
261.57028,0.08975
259.51067,-0.03079
257.45106,-0.03578
255.39146,0.02493
253.33185,0.01634
251.27224,-0.05268
249.21263,-0.00052
247.15302,0.05601
245.09341,0.09768
243.03381,0.10000
240.97420,0.07048
238.91459,0.03984
236.85498,0.01281
234.79537,-0.04276
232.73576,-0.03304
230.67615,0.04610
228.61655,-0.01110
226.55694,-0.04699
224.49733,-0.08210
222.43772,-0.08086
220.37811,-0.06482
218.31850,0.08148
216.25889,0.10279
214.19929,0.05749
212.13968,0.00178
210.08007,0.01589
208.02046,0.05536
205.96085,0.01935
203.90124,0.01201
201.84163,0.03399
199.78203,0.00508
197.72242,-0.03329
195.66281,-0.04616
193.60320,-0.02762
191.54359,0.01454
189.48398,0.02640
187.42438,0.00778
185.36477,0.03055
183.30516,0.06421
181.24555,0.07414
179.18594,0.05719
177.12633,0.02439
175.06672,0.01739
173.00712,-0.01303
170.94751,-0.01555
168.88790,-0.01444
166.82829,-0.02371
164.76868,0.03114
162.70907,0.07091
160.64946,-0.04824
158.58986,-0.07562
156.53025,-0.03703
154.47064,0.02054
152.41103,0.01525
150.35142,-0.01897
148.29181,0.02478
146.23220,-0.01250
144.17260,-0.08153
142.11299,-0.04854
140.05338,-0.02338
137.99377,-0.01159
135.93416,0.00294
133.87455,-0.00121
131.81495,0.02699
129.75534,0.03618
127.69573,0.02619
125.63612,0.04007
123.57651,0.04527
121.51690,0.03290
119.45729,0.00549
117.39769,0.00696
115.33808,0.01816
113.27847,-0.03216
111.21886,0.00025
109.15925,-0.00673
107.09964,-0.01709
105.04003,-0.03948
102.98043,-0.00463
100.92082,-0.01022
98.86121,-0.03183
96.80160,-0.04139
94.74199,-0.03750
92.68238,-0.03558
90.62277,0.00082
88.56317,0.01890
86.50356,0.00893
84.44395,-0.01459
82.38434,-0.02868
80.32473,-0.02164
78.26512,-0.00036
76.20552,0.00241
74.14591,0.02395
72.08630,0.03686
70.02669,0.05397
67.96708,0.03773
65.90747,0.03416
63.84786,0.00407
61.78826,-0.00040
59.72865,-0.00070
57.66904,0.00039
55.60943,0.00069
53.54982,-0.00279
51.49021,0.00035
49.43060,-0.00641
47.37100,0.00347
45.31139,0.00291
43.25178,-0.00953
41.19217,-0.00465
39.13256,0.00134
37.07295,0.00022
35.01334,0.00030
32.95374,0.00728
30.89413,0.00641
28.83452,0.00121
26.77491,0.00509
24.71530,0.00976
22.65569,-0.00064
20.59609,-0.00068
18.53648,0.00390
16.47687,-0.00447
14.41726,-0.00368
12.35765,-0.00126
10.29804,-0.00148
8.23843,0.00075
6.17883,0.00020
4.11922,0.00019
2.05961,0.00013
0.00000,-0.00000
