3996.32262,0.78403
3994.26266,0.78600
3992.20270,0.78792
3990.14274,0.78946
3988.08278,0.79061
3986.02282,0.79139
3983.96286,0.79168
3981.90290,0.79157
3979.84294,0.79143
3977.78298,0.79135
3975.72302,0.79131
3973.66306,0.79147
3971.60310,0.79184
3969.54314,0.79225
3967.48318,0.79271
3965.42322,0.79319
3963.36326,0.79352
3961.30330,0.79374
3959.24334,0.79406
3957.18338,0.79443
3955.12342,0.79464
3953.06346,0.79465
3951.00350,0.79456
3948.94354,0.79446
3946.88358,0.79435
3944.82362,0.79417
3942.76366,0.79397
3940.70370,0.79380
3938.64374,0.79372
3936.58378,0.79378
3934.52382,0.79391
3932.46386,0.79412
3930.40390,0.79460
3928.34394,0.79512
3926.28398,0.79543
3924.22402,0.79556
3922.16406,0.79569
3920.10410,0.79596
3918.04414,0.79643
3915.98418,0.79698
3913.92422,0.79741
3911.86426,0.79764
3909.80430,0.79775
3907.74434,0.79767
3905.68438,0.79740
3903.62442,0.79730
3901.56446,0.79755
3899.50450,0.79790
3897.44454,0.79832
3895.38458,0.79871
3893.32462,0.79900
3891.26466,0.79946
3889.20470,0.79991
3887.14474,0.79998
3885.08478,0.79995
3883.02482,0.79997
3880.96486,0.80005
3878.90490,0.80019
3876.84494,0.80008
3874.78498,0.79982
3872.72502,0.79960
3870.66506,0.79946
3868.60510,0.79950
3866.54514,0.79954
3864.48518,0.79951
3862.42522,0.79956
3860.36525,0.79958
3858.30529,0.79934
3856.24533,0.79875
3854.18537,0.79829
3852.12541,0.79873
3850.06545,0.79935
3848.00549,0.79951
3845.94553,0.79923
3843.88557,0.79865
3841.82561,0.79799
3839.76565,0.79736
3837.70569,0.79705
3835.64573,0.79705
3833.58577,0.79689
3831.52581,0.79661
3829.46585,0.79642
3827.40589,0.79622
3825.34593,0.79587
3823.28597,0.79526
3821.22601,0.79478
3819.16605,0.79472
3817.10609,0.79481
3815.04613,0.79513
3812.98617,0.79553
3810.92621,0.79561
3808.86625,0.79539
3806.80629,0.79521
3804.74633,0.79504
3802.68637,0.79486
3800.62641,0.79521
3798.56645,0.79588
3796.50649,0.79661
3794.44653,0.79751
3792.38657,0.79843
3790.32661,0.79924
3788.26665,0.79980
3786.20669,0.80019
3784.14673,0.80062
3782.08677,0.80110
3780.02681,0.80153
3777.96685,0.80179
3775.90689,0.80179
3773.84693,0.80163
3771.78697,0.80139
3769.72701,0.80117
3767.66705,0.80107
3765.60709,0.80112
3763.54713,0.80131
3761.48717,0.80143
3759.42721,0.80156
3757.36725,0.80197
3755.30729,0.80243
3753.24733,0.80258
3751.18737,0.80272
3749.12741,0.80319
3747.06745,0.80346
3745.00749,0.80355
3742.94753,0.80392
3740.88757,0.80414
3738.82761,0.80394
3736.76765,0.80351
3734.70769,0.80315
3732.64773,0.80292
3730.58777,0.80257
3728.52781,0.80186
3726.46785,0.80084
3724.40789,0.79988
3722.34793,0.79937
3720.28797,0.79948
3718.22801,0.80003
3716.16805,0.80067
3714.10809,0.80106
3712.04813,0.80113
3709.98817,0.80104
3707.92821,0.80065
3705.86825,0.79971
3703.80829,0.79852
3701.74833,0.79775
3699.68837,0.79775
3697.62841,0.79833
3695.56845,0.79908
3693.50849,0.79961
3691.44853,0.79988
3689.38857,0.80009
3687.32861,0.80008
3685.26865,0.79963
3683.20869,0.79880
3681.14872,0.79786
3679.08876,0.79701
3677.02880,0.79634
3674.96884,0.79634
3672.90888,0.79667
3670.84892,0.79675
3668.78896,0.79709
3666.72900,0.79751
3664.66904,0.79740
3662.60908,0.79685
3660.54912,0.79591
3658.48916,0.79431
3656.42920,0.79205
3654.36924,0.78966
3652.30928,0.78727
3650.24932,0.78474
3648.18936,0.78312
3646.12940,0.78345
3644.06944,0.78532
3642.00948,0.78831
3639.94952,0.79198
3637.88956,0.79544
3635.82960,0.79795
3633.76964,0.79934
3631.70968,0.79971
3629.64972,0.79933
3627.58976,0.79860
3625.52980,0.79756
3623.46984,0.79615
3621.40988,0.79479
3619.34992,0.79455
3617.28996,0.79605
3615.23000,0.79842
3613.17004,0.80084
3611.11008,0.80289
3609.05012,0.80435
3606.99016,0.80536
3604.93020,0.80600
3602.87024,0.80633
3600.81028,0.80639
3598.75032,0.80615
3596.69036,0.80581
3594.63040,0.80569
3592.57044,0.80570
3590.51048,0.80559
3588.45052,0.80555
3586.39056,0.80585
3584.33060,0.80614
3582.27064,0.80615
3580.21068,0.80620
3578.15072,0.80647
3576.09076,0.80680
3574.03080,0.80706
3571.97084,0.80715
3569.91088,0.80704
3567.85092,0.80691
3565.79096,0.80705
3563.73100,0.80729
3561.67104,0.80735
3559.61108,0.80714
3557.55112,0.80688
3555.49116,0.80669
3553.43120,0.80651
3551.37124,0.80637
3549.31128,0.80618
3547.25132,0.80600
3545.19136,0.80582
3543.13140,0.80550
3541.07144,0.80511
3539.01148,0.80480
3536.95152,0.80455
3534.89156,0.80422
3532.83160,0.80382
3530.77164,0.80337
3528.71168,0.80301
3526.65172,0.80296
3524.59176,0.80299
3522.53180,0.80274
3520.47184,0.80232
3518.41188,0.80198
3516.35192,0.80176
3514.29196,0.80148
3512.23200,0.80111
3510.17204,0.80082
3508.11208,0.80069
3506.05212,0.80059
3503.99216,0.80054
3501.93219,0.80040
3499.87223,0.80009
3497.81227,0.79972
3495.75231,0.79936
3493.69235,0.79902
3491.63239,0.79866
3489.57243,0.79826
3487.51247,0.79793
3485.45251,0.79760
3483.39255,0.79727
3481.33259,0.79710
3479.27263,0.79695
3477.21267,0.79668
3475.15271,0.79638
3473.09275,0.79619
3471.03279,0.79609
3468.97283,0.79602
3466.91287,0.79582
3464.85291,0.79554
3462.79295,0.79537
3460.73299,0.79536
3458.67303,0.79529
3456.61307,0.79512
3454.55311,0.79494
3452.49315,0.79472
3450.43319,0.79438
3448.37323,0.79397
3446.31327,0.79359
3444.25331,0.79324
3442.19335,0.79300
3440.13339,0.79312
3438.07343,0.79364
3436.01347,0.79426
3433.95351,0.79476
3431.89355,0.79529
3429.83359,0.79589
3427.77363,0.79633
3425.71367,0.79667
3423.65371,0.79707
3421.59375,0.79743
3419.53379,0.79765
3417.47383,0.79781
3415.41387,0.79808
3413.35391,0.79832
3411.29395,0.79834
3409.23399,0.79825
3407.17403,0.79815
3405.11407,0.79817
3403.05411,0.79844
3400.99415,0.79869
3398.93419,0.79865
3396.87423,0.79857
3394.81427,0.79875
3392.75431,0.79899
3390.69435,0.79898
3388.63439,0.79877
3386.57443,0.79868
3384.51447,0.79877
3382.45451,0.79904
3380.39455,0.79942
3378.33459,0.79983
3376.27463,0.80023
3374.21467,0.80062
3372.15471,0.80117
3370.09475,0.80188
3368.03479,0.80234
3365.97483,0.80242
3363.91487,0.80245
3361.85491,0.80257
3359.79495,0.80265
3357.73499,0.80268
3355.67503,0.80280
3353.61507,0.80305
3351.55511,0.80329
3349.49515,0.80328
3347.43519,0.80312
3345.37523,0.80311
3343.31527,0.80324
3341.25531,0.80337
3339.19535,0.80342
3337.13539,0.80337
3335.07543,0.80330
3333.01547,0.80329
3330.95551,0.80334
3328.89555,0.80345
3326.83559,0.80360
3324.77563,0.80371
3322.71566,0.80367
3320.65570,0.80361
3318.59574,0.80362
3316.53578,0.80366
3314.47582,0.80371
3312.41586,0.80384
3310.35590,0.80415
3308.29594,0.80454
3306.23598,0.80470
3304.17602,0.80448
3302.11606,0.80412
3300.05610,0.80399
3297.99614,0.80412
3295.93618,0.80432
3293.87622,0.80440
3291.81626,0.80424
3289.75630,0.80395
3287.69634,0.80370
3285.63638,0.80357
3283.57642,0.80351
3281.51646,0.80346
3279.45650,0.80341
3277.39654,0.80345
3275.33658,0.80361
3273.27662,0.80385
3271.21666,0.80394
3269.15670,0.80366
3267.09674,0.80331
3265.03678,0.80316
3262.97682,0.80312
3260.91686,0.80311
3258.85690,0.80311
3256.79694,0.80312
3254.73698,0.80311
3252.67702,0.80310
3250.61706,0.80321
3248.55710,0.80344
3246.49714,0.80360
3244.43718,0.80356
3242.37722,0.80344
3240.31726,0.80339
3238.25730,0.80339
3236.19734,0.80351
3234.13738,0.80365
3232.07742,0.80355
3230.01746,0.80330
3227.95750,0.80312
3225.89754,0.80304
3223.83758,0.80297
3221.77762,0.80284
3219.71766,0.80264
3217.65770,0.80241
3215.59774,0.80218
3213.53778,0.80190
3211.47782,0.80147
3209.41786,0.80082
3207.35790,0.80000
3205.29794,0.79912
3203.23798,0.79833
3201.17802,0.79770
3199.11806,0.79722
3197.05810,0.79697
3194.99814,0.79692
3192.93818,0.79685
3190.87822,0.79659
3188.81826,0.79623
3186.75830,0.79583
3184.69834,0.79536
3182.63838,0.79490
3180.57842,0.79449
3178.51846,0.79402
3176.45850,0.79342
3174.39854,0.79241
3172.33858,0.79068
3170.27862,0.78797
3168.21866,0.78404
3166.15870,0.77927
3164.09874,0.77497
3162.03878,0.77288
3159.97882,0.77370
3157.91886,0.77645
3155.85890,0.77962
3153.79894,0.78211
3151.73898,0.78340
3149.67902,0.78364
3147.61906,0.78340
3145.55910,0.78304
3143.49914,0.78267
3141.43917,0.78228
3139.37921,0.78162
3137.31925,0.78042
3135.25929,0.77888
3133.19933,0.77722
3131.13937,0.77529
3129.07941,0.77281
3127.01945,0.76963
3124.95949,0.76571
3122.89953,0.76086
3120.83957,0.75441
3118.77961,0.74524
3116.71965,0.73204
3114.65969,0.71321
3112.59973,0.68722
3110.53977,0.65336
3108.47981,0.61354
3106.41985,0.57482
3104.35989,0.54774
3102.29993,0.53894
3100.23997,0.54523
3098.18001,0.55562
3096.12005,0.55808
3094.06009,0.54368
3092.00013,0.50695
3089.94017,0.44681
3087.88021,0.37057
3085.82025,0.29595
3083.76029,0.24474
3081.70033,0.23137
3079.64037,0.25402
3077.58041,0.29410
3075.52045,0.32834
3073.46049,0.34286
3071.40053,0.33489
3069.34057,0.30643
3067.28061,0.26159
3065.22065,0.20909
3063.16069,0.16247
3061.10073,0.13469
3059.04077,0.13340
3056.98081,0.15918
3054.92085,0.20439
3052.86089,0.25608
3050.80093,0.30334
3048.74097,0.34043
3046.68101,0.36360
3044.62105,0.36890
3042.56109,0.35436
3040.50113,0.32166
3038.44117,0.27464
3036.38121,0.21758
3034.32125,0.15611
3032.26129,0.09883
3030.20133,0.05507
3028.14137,0.02930
3026.08141,0.02047
3024.02145,0.02828
3021.96149,0.05804
3019.90153,0.11544
3017.84157,0.19567
3015.78161,0.28263
3013.72165,0.35903
3011.66169,0.41373
3009.60173,0.44180
3007.54177,0.44335
3005.48181,0.42447
3003.42185,0.39939
3001.36189,0.38864
2999.30193,0.40840
2997.24197,0.45759
2995.18201,0.51780
2993.12205,0.56931
2991.06209,0.60449
2989.00213,0.62555
2986.94217,0.63671
2984.88221,0.64080
2982.82225,0.63946
2980.76229,0.63414
2978.70233,0.62684
2976.64237,0.61968
2974.58241,0.61354
2972.52245,0.60713
2970.46249,0.59801
2968.40253,0.58465
2966.34257,0.56682
2964.28261,0.54491
2962.22264,0.51935
2960.16268,0.49033
2958.10272,0.45806
2956.04276,0.42276
2953.98280,0.38459
2951.92284,0.34372
2949.86288,0.30077
2947.80292,0.25698
2945.74296,0.21374
2943.68300,0.17243
2941.62304,0.13451
2939.56308,0.10130
2937.50312,0.07356
2935.44316,0.05160
2933.38320,0.03535
2931.32324,0.02421
2929.26328,0.01701
2927.20332,0.01266
2925.14336,0.01055
2923.08340,0.01028
2921.02344,0.01162
2918.96348,0.01445
2916.90352,0.01879
2914.84356,0.02491
2912.78360,0.03320
2910.72364,0.04408
2908.66368,0.05788
2906.60372,0.07483
2904.54376,0.09539
2902.48380,0.12006
2900.42384,0.14863
2898.36388,0.17957
2896.30392,0.21046
2894.24396,0.23918
2892.18400,0.26484
2890.12404,0.28773
2888.06408,0.30871
2886.00412,0.32866
2883.94416,0.34829
2881.88420,0.36800
2879.82424,0.38769
2877.76428,0.40673
2875.70432,0.42385
2873.64436,0.43732
2871.58440,0.44531
2869.52444,0.44626
2867.46448,0.43874
2865.40452,0.42175
2863.34456,0.39559
2861.28460,0.36214
2859.22464,0.32462
2857.16468,0.28726
2855.10472,0.25440
2853.04476,0.22964
2850.98480,0.21569
2848.92484,0.21493
2846.86488,0.22997
2844.80492,0.26360
2842.74496,0.31700
2840.68500,0.38663
2838.62504,0.46301
2836.56508,0.53461
2834.50512,0.59336
2832.44516,0.63679
2830.38520,0.66682
2828.32524,0.68708
2826.26528,0.70083
2824.20532,0.71032
2822.14536,0.71698
2820.08540,0.72169
2818.02544,0.72503
2815.96548,0.72742
2813.90552,0.72919
2811.84556,0.73072
2809.78560,0.73246
2807.72564,0.73466
2805.66568,0.73743
2803.60572,0.74069
2801.54576,0.74419
2799.48580,0.74762
2797.42584,0.75070
2795.36588,0.75340
2793.30592,0.75584
2791.24596,0.75794
2789.18600,0.75952
2787.12604,0.76048
2785.06608,0.76093
2783.00611,0.76115
2780.94615,0.76149
2778.88619,0.76236
2776.82623,0.76405
2774.76627,0.76647
2772.70631,0.76930
2770.64635,0.77207
2768.58639,0.77445
2766.52643,0.77636
2764.46647,0.77786
2762.40651,0.77908
2760.34655,0.78017
2758.28659,0.78116
2756.22663,0.78201
2754.16667,0.78274
2752.10671,0.78340
2750.04675,0.78396
2747.98679,0.78439
2745.92683,0.78462
2743.86687,0.78458
2741.80691,0.78431
2739.74695,0.78380
2737.68699,0.78300
2735.62703,0.78202
2733.56707,0.78099
2731.50711,0.78005
2729.44715,0.77929
2727.38719,0.77870
2725.32723,0.77820
2723.26727,0.77783
2721.20731,0.77763
2719.14735,0.77756
2717.08739,0.77766
2715.02743,0.77790
2712.96747,0.77827
2710.90751,0.77867
2708.84755,0.77901
2706.78759,0.77926
2704.72763,0.77943
2702.66767,0.77946
2700.60771,0.77937
2698.54775,0.77921
2696.48779,0.77899
2694.42783,0.77875
2692.36787,0.77856
2690.30791,0.77848
2688.24795,0.77855
2686.18799,0.77875
2684.12803,0.77906
2682.06807,0.77937
2680.00811,0.77963
2677.94815,0.77986
2675.88819,0.78002
2673.82823,0.78010
2671.76827,0.78021
2669.70831,0.78051
2667.64835,0.78106
2665.58839,0.78169
2663.52843,0.78214
2661.46847,0.78230
2659.40851,0.78227
2657.34855,0.78216
2655.28859,0.78196
2653.22863,0.78172
2651.16867,0.78147
2649.10871,0.78117
2647.04875,0.78090
2644.98879,0.78071
2642.92883,0.78044
2640.86887,0.77974
2638.80891,0.77818
2636.74895,0.77564
2634.68899,0.77270
2632.62903,0.77060
2630.56907,0.77064
2628.50911,0.77302
2626.44915,0.77657
2624.38919,0.77997
2622.32923,0.78262
2620.26927,0.78449
2618.20931,0.78563
2616.14935,0.78604
2614.08939,0.78565
2612.02943,0.78436
2609.96947,0.78218
2607.90951,0.77934
2605.84955,0.77660
2603.78958,0.77495
2601.72962,0.77512
2599.66966,0.77710
2597.60970,0.78019
2595.54974,0.78346
2593.48978,0.78617
2591.42982,0.78784
2589.36986,0.78827
2587.30990,0.78745
2585.24994,0.78557
2583.18998,0.78338
2581.13002,0.78228
2579.07006,0.78325
2577.01010,0.78575
2574.95014,0.78841
2572.89018,0.79030
2570.83022,0.79133
2568.77026,0.79175
2566.71030,0.79181
2564.65034,0.79176
2562.59038,0.79175
2560.53042,0.79179
2558.47046,0.79184
2556.41050,0.79181
2554.35054,0.79158
2552.29058,0.79111
2550.23062,0.79050
2548.17066,0.78994
2546.11070,0.78976
2544.05074,0.79016
2541.99078,0.79097
2539.93082,0.79190
2537.87086,0.79268
2535.81090,0.79316
2533.75094,0.79337
2531.69098,0.79340
2529.63102,0.79327
2527.57106,0.79297
2525.51110,0.79257
2523.45114,0.79215
2521.39118,0.79175
2519.33122,0.79138
2517.27126,0.79106
2515.21130,0.79078
2513.15134,0.79052
2511.09138,0.79034
2509.03142,0.79040
2506.97146,0.79081
2504.91150,0.79155
2502.85154,0.79245
2500.79158,0.79336
2498.73162,0.79413
2496.67166,0.79464
2494.61170,0.79505
2492.55174,0.79554
2490.49178,0.79615
2488.43182,0.79679
2486.37186,0.79742
2484.31190,0.79806
2482.25194,0.79878
2480.19198,0.79967
2478.13202,0.80074
2476.07206,0.80191
2474.01210,0.80306
2471.95214,0.80414
2469.89218,0.80515
2467.83222,0.80602
2465.77226,0.80674
2463.71230,0.80734
2461.65234,0.80779
2459.59238,0.80803
2457.53242,0.80808
2455.47246,0.80804
2453.41250,0.80800
2451.35254,0.80809
2449.29258,0.80835
2447.23262,0.80869
2445.17266,0.80901
2443.11270,0.80929
2441.05274,0.80955
2438.99278,0.80983
2436.93282,0.81014
2434.87286,0.81044
2432.81290,0.81078
2430.75294,0.81123
2428.69298,0.81178
2426.63302,0.81230
2424.57305,0.81270
2422.51309,0.81297
2420.45313,0.81312
2418.39317,0.81318
2416.33321,0.81318
2414.27325,0.81312
2412.21329,0.81295
2410.15333,0.81268
2408.09337,0.81231
2406.03341,0.81191
2403.97345,0.81157
2401.91349,0.81129
2399.85353,0.81107
2397.79357,0.81091
2395.73361,0.81081
2393.67365,0.81079
2391.61369,0.81080
2389.55373,0.81073
2387.49377,0.81053
2385.43381,0.81011
2383.37385,0.80940
2381.31389,0.80837
2379.25393,0.80704
2377.19397,0.80555
2375.13401,0.80399
2373.07405,0.80226
2371.01409,0.80024
2368.95413,0.79796
2366.89417,0.79555
2364.83421,0.79321
2362.77425,0.79123
2360.71429,0.79002
2358.65433,0.78982
2356.59437,0.79061
2354.53441,0.79211
2352.47445,0.79384
2350.41449,0.79489
2348.35453,0.79408
2346.29457,0.79079
2344.23461,0.78566
2342.17465,0.77990
2340.11469,0.77433
2338.05473,0.77049
2335.99477,0.77035
2333.93481,0.77434
2331.87485,0.78099
2329.81489,0.78812
2327.75493,0.79401
2325.69497,0.79793
2323.63501,0.79996
2321.57505,0.80042
2319.51509,0.79962
2317.45513,0.79770
2315.39517,0.79502
2313.33521,0.79270
2311.27525,0.79229
2309.21529,0.79451
2307.15533,0.79869
2305.09537,0.80325
2303.03541,0.80687
2300.97545,0.80908
2298.91549,0.81006
2296.85553,0.81024
2294.79557,0.81022
2292.73561,0.81046
2290.67565,0.81114
2288.61569,0.81222
2286.55573,0.81351
2284.49577,0.81477
2282.43581,0.81577
2280.37585,0.81641
2278.31589,0.81670
2276.25593,0.81673
2274.19597,0.81655
2272.13601,0.81621
2270.07605,0.81574
2268.01609,0.81517
2265.95613,0.81452
2263.89617,0.81383
2261.83621,0.81322
2259.77625,0.81271
2257.71629,0.81229
2255.65633,0.81206
2253.59637,0.81216
2251.53641,0.81267
2249.47645,0.81356
2247.41649,0.81467
2245.35653,0.81581
2243.29656,0.81685
2241.23660,0.81774
2239.17664,0.81845
2237.11668,0.81897
2235.05672,0.81934
2232.99676,0.81967
2230.93680,0.82000
2228.87684,0.82032
2226.81688,0.82068
2224.75692,0.82107
2222.69696,0.82142
2220.63700,0.82169
2218.57704,0.82187
2216.51708,0.82191
2214.45712,0.82185
2212.39716,0.82184
2210.33720,0.82198
2208.27724,0.82236
2206.21728,0.82297
2204.15732,0.82363
2202.09736,0.82416
2200.03740,0.82451
2197.97744,0.82469
2195.91748,0.82470
2193.85752,0.82451
2191.79756,0.82413
2189.73760,0.82363
2187.67764,0.82318
2185.61768,0.82294
2183.55772,0.82308
2181.49776,0.82365
2179.43780,0.82456
2177.37784,0.82554
2175.31788,0.82636
2173.25792,0.82702
2171.19796,0.82753
2169.13800,0.82792
2167.07804,0.82820
2165.01808,0.82843
2162.95812,0.82860
2160.89816,0.82872
2158.83820,0.82882
2156.77824,0.82892
2154.71828,0.82899
2152.65832,0.82906
2150.59836,0.82917
2148.53840,0.82931
2146.47844,0.82950
2144.41848,0.82975
2142.35852,0.83003
2140.29856,0.83029
2138.23860,0.83056
2136.17864,0.83088
2134.11868,0.83117
2132.05872,0.83141
2129.99876,0.83162
2127.93880,0.83178
2125.87884,0.83187
2123.81888,0.83191
2121.75892,0.83195
2119.69896,0.83201
2117.63900,0.83206
2115.57904,0.83209
2113.51908,0.83215
2111.45912,0.83231
2109.39916,0.83257
2107.33920,0.83286
2105.27924,0.83316
2103.21928,0.83346
2101.15932,0.83375
2099.09936,0.83397
2097.03940,0.83420
2094.97944,0.83446
2092.91948,0.83470
2090.85952,0.83490
2088.79956,0.83508
2086.73960,0.83522
2084.67964,0.83531
2082.61968,0.83536
2080.55972,0.83534
2078.49976,0.83526
2076.43980,0.83516
2074.37984,0.83509
2072.31988,0.83505
2070.25992,0.83505
2068.19996,0.83511
2066.14000,0.83519
2064.08003,0.83530
2062.02007,0.83539
2059.96011,0.83546
2057.90015,0.83552
2055.84019,0.83556
2053.78023,0.83560
2051.72027,0.83560
2049.66031,0.83556
2047.60035,0.83549
2045.54039,0.83541
2043.48043,0.83527
2041.42047,0.83501
2039.36051,0.83467
2037.30055,0.83427
2035.24059,0.83381
2033.18063,0.83334
2031.12067,0.83302
2029.06071,0.83289
2027.00075,0.83289
2024.94079,0.83294
2022.88083,0.83299
2020.82087,0.83294
2018.76091,0.83270
2016.70095,0.83225
2014.64099,0.83163
2012.58103,0.83088
2010.52107,0.83012
2008.46111,0.82950
2006.40115,0.82909
2004.34119,0.82880
2002.28123,0.82846
2000.22127,0.82780
1998.16131,0.82662
1996.10135,0.82482
1994.04139,0.82223
1991.98143,0.81874
1989.92147,0.81465
1987.86151,0.81082
1985.80155,0.80819
1983.74159,0.80719
1981.68163,0.80721
1979.62167,0.80727
1977.56171,0.80646
1975.50175,0.80381
1973.44179,0.79832
1971.38183,0.78945
1969.32187,0.77748
1967.26191,0.76322
1965.20195,0.74830
1963.14199,0.73442
1961.08203,0.72244
1959.02207,0.71247
1956.96211,0.70405
1954.90215,0.69591
1952.84219,0.68644
1950.78223,0.67459
1948.72227,0.66066
1946.66231,0.64682
1944.60235,0.63663
1942.54239,0.63382
1940.48243,0.64083
1938.42247,0.65710
1936.36251,0.68003
1934.30255,0.70559
1932.24259,0.72957
1930.18263,0.74938
1928.12267,0.76449
1926.06271,0.77569
1924.00275,0.78441
1921.94279,0.79168
1919.88283,0.79776
1917.82287,0.80289
1915.76291,0.80690
1913.70295,0.80946
1911.64299,0.81074
1909.58303,0.81088
1907.52307,0.80989
1905.46311,0.80774
1903.40315,0.80431
1901.34319,0.79930
1899.28323,0.79245
1897.22327,0.78360
1895.16331,0.77276
1893.10335,0.76073
1891.04339,0.74829
1888.98343,0.73589
1886.92347,0.72490
1884.86350,0.71596
1882.80354,0.70872
1880.74358,0.70272
1878.68362,0.69728
1876.62366,0.69182
1874.56370,0.68649
1872.50374,0.68217
1870.44378,0.68041
1868.38382,0.68326
1866.32386,0.69183
1864.26390,0.70532
1862.20394,0.72257
1860.14398,0.74167
1858.08402,0.76011
1856.02406,0.77602
1853.96410,0.78865
1851.90414,0.79814
1849.84418,0.80498
1847.78422,0.80974
1845.72426,0.81295
1843.66430,0.81515
1841.60434,0.81633
1839.54438,0.81637
1837.48442,0.81521
1835.42446,0.81272
1833.36450,0.80892
1831.30454,0.80350
1829.24458,0.79625
1827.18462,0.78807
1825.12466,0.77897
1823.06470,0.76900
1821.00474,0.75903
1818.94478,0.74885
1816.88482,0.73836
1814.82486,0.72779
1812.76490,0.71700
1810.70494,0.70567
1808.64498,0.69453
1806.58502,0.68491
1804.52506,0.67807
1802.46510,0.67554
1800.40514,0.67921
1798.34518,0.68967
1796.28522,0.70502
1794.22526,0.72366
1792.16530,0.74494
1790.10534,0.76418
1788.04538,0.77760
1785.98542,0.78665
1783.92546,0.79208
1781.86550,0.79386
1779.80554,0.79292
1777.74558,0.79087
1775.68562,0.78942
1773.62566,0.78966
1771.56570,0.79160
1769.50574,0.79319
1767.44578,0.79271
1765.38582,0.78990
1763.32586,0.78468
1761.26590,0.77682
1759.20594,0.76756
1757.14598,0.75723
1755.08602,0.74644
1753.02606,0.73656
1750.96610,0.72724
1748.90614,0.71994
1746.84618,0.71647
1744.78622,0.71655
1742.72626,0.71977
1740.66630,0.72604
1738.60634,0.73435
1736.54638,0.74253
1734.48642,0.75171
1732.42646,0.76145
1730.36650,0.76856
1728.30654,0.77406
1726.24658,0.77857
1724.18662,0.78220
1722.12666,0.78511
1720.06670,0.78737
1718.00674,0.78944
1715.94678,0.79153
1713.88682,0.79314
1711.82686,0.79413
1709.76690,0.79447
1707.70694,0.79423
1705.64697,0.79361
1703.58701,0.79301
1701.52705,0.79275
1699.46709,0.79311
1697.40713,0.79407
1695.34717,0.79510
1693.28721,0.79535
1691.22725,0.79429
1689.16729,0.79207
1687.10733,0.78916
1685.04737,0.78517
1682.98741,0.78030
1680.92745,0.77660
1678.86749,0.77369
1676.80753,0.77078
1674.74757,0.76781
1672.68761,0.76541
1670.62765,0.76378
1668.56769,0.76305
1666.50773,0.76381
1664.44777,0.76616
1662.38781,0.77053
1660.32785,0.77615
1658.26789,0.78167
1656.20793,0.78644
1654.14797,0.79123
1652.08801,0.79675
1650.02805,0.80035
1647.96809,0.80292
1645.90813,0.80579
1643.84817,0.80802
1641.78821,0.80923
1639.72825,0.80977
1637.66829,0.80962
1635.60833,0.80878
1633.54837,0.80739
1631.48841,0.80536
1629.42845,0.80201
1627.36849,0.79726
1625.30853,0.79163
1623.24857,0.78512
1621.18861,0.77812
1619.12865,0.76982
1617.06869,0.75531
1615.00873,0.73201
1612.94877,0.69964
1610.88881,0.64556
1608.82885,0.55404
1606.76889,0.42870
1604.70893,0.30055
1602.64897,0.21202
1600.58901,0.19672
1598.52905,0.25751
1596.46909,0.36216
1594.40913,0.46683
1592.34917,0.54589
1590.28921,0.59425
1588.22925,0.60452
1586.16929,0.57193
1584.10933,0.52918
1582.04937,0.53453
1579.98941,0.59587
1577.92945,0.66882
1575.86949,0.72466
1573.80953,0.75597
1571.74957,0.77285
1569.68961,0.78571
1567.62965,0.79457
1565.56969,0.79931
1563.50973,0.80188
1561.44977,0.80255
1559.38981,0.80010
1557.32985,0.79434
1555.26989,0.78768
1553.20993,0.77914
1551.14997,0.76864
1549.09001,0.75707
1547.03005,0.74638
1544.97009,0.73766
1542.91013,0.73192
1540.85017,0.73125
1538.79021,0.73676
1536.73025,0.74450
1534.67029,0.75368
1532.61033,0.76496
1530.55037,0.77442
1528.49041,0.78093
1526.43044,0.78521
1524.37048,0.78705
1522.31052,0.78645
1520.25056,0.78380
1518.19060,0.77968
1516.13064,0.77396
1514.07068,0.76675
1512.01072,0.75788
1509.95076,0.74658
1507.89080,0.72712
1505.83084,0.68884
1503.77088,0.63845
1501.71092,0.56706
1499.65096,0.44566
1497.59100,0.26986
1495.53104,0.10828
1493.47108,0.03698
1491.41112,0.05396
1489.35116,0.14871
1487.29120,0.28608
1485.23124,0.41494
1483.17128,0.51788
1481.11132,0.59271
1479.05136,0.63875
1476.99140,0.66364
1474.93144,0.67640
1472.87148,0.68073
1470.81152,0.67789
1468.75156,0.66958
1466.69160,0.65438
1464.63164,0.62611
1462.57168,0.58213
1460.51172,0.51690
1458.45176,0.39332
1456.39180,0.19760
1454.33184,0.06255
1452.27188,0.02514
1450.21192,0.03654
1448.15196,0.07338
1446.09200,0.12420
1444.03204,0.18332
1441.97208,0.24970
1439.91212,0.31749
1437.85216,0.39241
1435.79220,0.48157
1433.73224,0.55977
1431.67228,0.62023
1429.61232,0.66971
1427.55236,0.70418
1425.49240,0.72540
1423.43244,0.73888
1421.37248,0.74731
1419.31252,0.75324
1417.25256,0.75762
1415.19260,0.76036
1413.13264,0.76182
1411.07268,0.76214
1409.01272,0.76136
1406.95276,0.75970
1404.89280,0.75726
1402.83284,0.75418
1400.77288,0.75008
1398.71292,0.74372
1396.65296,0.73402
1394.59300,0.71918
1392.53304,0.69906
1390.47308,0.67526
1388.41312,0.64668
1386.35316,0.61519
1384.29320,0.58766
1382.23324,0.56536
1380.17328,0.54549
1378.11332,0.52633
1376.05336,0.50885
1373.99340,0.49658
1371.93344,0.49255
1369.87348,0.49517
1367.81352,0.50074
1365.75356,0.50697
1363.69360,0.51388
1361.63364,0.52290
1359.57368,0.53381
1357.51372,0.54474
1355.45376,0.55322
1353.39380,0.55778
1351.33384,0.55972
1349.27388,0.56220
1347.21392,0.56791
1345.15395,0.57754
1343.09399,0.58955
1341.03403,0.60085
1338.97407,0.60762
1336.91411,0.60613
1334.85415,0.59583
1332.79419,0.58006
1330.73423,0.56528
1328.67427,0.55842
1326.61431,0.56195
1324.55435,0.57200
1322.49439,0.58228
1320.43443,0.58847
1318.37447,0.58893
1316.31451,0.58458
1314.25455,0.57887
1312.19459,0.57638
1310.13463,0.58008
1308.07467,0.58941
1306.01471,0.60166
1303.95475,0.61472
1301.89479,0.62772
1299.83483,0.63944
1297.77487,0.64826
1295.71491,0.65388
1293.65495,0.65808
1291.59499,0.66296
1289.53503,0.66902
1287.47507,0.67485
1285.41511,0.67881
1283.35515,0.68100
1281.29519,0.68352
1279.23523,0.68884
1277.17527,0.69787
1275.11531,0.70923
1273.05535,0.72056
1270.99539,0.73023
1268.93543,0.73784
1266.87547,0.74365
1264.81551,0.74804
1262.75555,0.75120
1260.69559,0.75306
1258.63563,0.75345
1256.57567,0.75234
1254.51571,0.74997
1252.45575,0.74696
1250.39579,0.74402
1248.33583,0.74175
1246.27587,0.74053
1244.21591,0.74047
1242.15595,0.74145
1240.09599,0.74321
1238.03603,0.74522
1235.97607,0.74673
1233.91611,0.74710
1231.85615,0.74618
1229.79619,0.74439
1227.73623,0.74261
1225.67627,0.74168
1223.61631,0.74181
1221.55635,0.74244
1219.49639,0.74253
1217.43643,0.74115
1215.37647,0.73782
1213.31651,0.73246
1211.25655,0.72508
1209.19659,0.71564
1207.13663,0.70397
1205.07667,0.68995
1203.01671,0.67424
1200.95675,0.65892
1198.89679,0.64688
1196.83683,0.63989
1194.77687,0.63719
1192.71691,0.63634
1190.65695,0.63472
1188.59699,0.62858
1186.53703,0.61278
1184.47707,0.58725
1182.41711,0.56540
1180.35715,0.56805
1178.29719,0.60168
1176.23723,0.64864
1174.17727,0.68650
1172.11731,0.70806
1170.05735,0.71823
1167.99739,0.72222
1165.93742,0.72155
1163.87746,0.71464
1161.81750,0.69706
1159.75754,0.66406
1157.69758,0.61982
1155.63762,0.58504
1153.57766,0.58493
1151.51770,0.62328
1149.45774,0.67660
1147.39778,0.71985
1145.33782,0.74744
1143.27786,0.76556
1141.21790,0.77886
1139.15794,0.78866
1137.09798,0.79536
1135.03802,0.79959
1132.97806,0.80217
1130.91810,0.80367
1128.85814,0.80422
1126.79818,0.80371
1124.73822,0.80166
1122.67826,0.79724
1120.61830,0.78965
1118.55834,0.77886
1116.49838,0.76668
1114.43842,0.75649
1112.37846,0.75124
1110.31850,0.75123
1108.25854,0.75423
1106.19858,0.75696
1104.13862,0.75705
1102.07866,0.75394
1100.01870,0.74842
1097.95874,0.74160
1095.89878,0.73436
1093.83882,0.72698
1091.77886,0.71907
1089.71890,0.70971
1087.65894,0.69752
1085.59898,0.68126
1083.53902,0.66094
1081.47906,0.63844
1079.41910,0.61569
1077.35914,0.59123
1075.29918,0.56175
1073.23922,0.52977
1071.17926,0.50477
1069.11930,0.49562
1067.05934,0.50536
1064.99938,0.53027
1062.93942,0.56204
1060.87946,0.59274
1058.81950,0.61849
1056.75954,0.63900
1054.69958,0.65536
1052.63962,0.66859
1050.57966,0.67927
1048.51970,0.68756
1046.45974,0.69334
1044.39978,0.69601
1042.33982,0.69355
1040.27986,0.68113
1038.21990,0.64933
1036.15994,0.58627
1034.09998,0.49157
1032.04002,0.39086
1029.98006,0.32180
1027.92010,0.30662
1025.86014,0.34338
1023.80018,0.40835
1021.74022,0.47246
1019.68026,0.52293
1017.62030,0.56121
1015.56034,0.59078
1013.50038,0.61361
1011.44042,0.63021
1009.38046,0.63909
1007.32050,0.63721
1005.26054,0.62677
1003.20058,0.62241
1001.14062,0.63870
999.08066,0.66881
997.02070,0.69340
994.96074,0.70491
992.90078,0.70743
990.84082,0.70460
988.78086,0.69717
986.72089,0.68511
984.66093,0.66994
982.60097,0.65580
980.54101,0.64752
978.48105,0.64782
976.42109,0.65492
974.36113,0.66205
972.30117,0.66114
970.24121,0.64892
968.18125,0.62990
966.12129,0.61400
964.06133,0.61093
962.00137,0.62461
959.94141,0.65012
957.88145,0.67672
955.82149,0.69583
953.76153,0.70529
951.70157,0.70682
949.64161,0.70254
947.58165,0.69452
945.52169,0.68582
943.46173,0.68070
941.40177,0.68270
939.34181,0.69234
937.28185,0.70686
935.22189,0.72236
933.16193,0.73560
931.10197,0.74453
929.04201,0.74819
926.98205,0.74665
924.92209,0.74076
922.86213,0.73116
920.80217,0.71726
918.74221,0.69674
916.68225,0.66578
914.62229,0.62154
912.56233,0.56627
910.50237,0.50972
908.44241,0.46720
906.38245,0.45354
904.32249,0.47543
902.26253,0.52706
900.20257,0.59260
898.14261,0.65391
896.08265,0.69973
894.02269,0.72940
891.96273,0.74832
889.90277,0.76168
887.84281,0.77236
885.78285,0.78143
883.72289,0.78914
881.66293,0.79557
879.60297,0.80081
877.54301,0.80501
875.48305,0.80850
873.42309,0.81150
871.36313,0.81398
869.30317,0.81592
867.24321,0.81733
865.18325,0.81820
863.12329,0.81843
861.06333,0.81770
859.00337,0.81571
856.94341,0.81197
854.88345,0.80516
852.82349,0.79297
850.76353,0.77321
848.70357,0.74637
846.64361,0.71714
844.58365,0.69258
842.52369,0.67892
840.46373,0.67999
838.40377,0.69620
836.34381,0.72327
834.28385,0.75280
832.22389,0.77647
830.16393,0.79114
828.10397,0.79864
826.04401,0.80196
823.98405,0.80320
821.92409,0.80338
819.86413,0.80282
817.80417,0.80168
815.74421,0.80012
813.68425,0.79834
811.62429,0.79648
809.56433,0.79465
807.50436,0.79299
805.44440,0.79116
803.38444,0.78822
801.32448,0.78298
799.26452,0.77448
797.20456,0.76215
795.14460,0.74540
793.08464,0.72358
791.02468,0.69662
788.96472,0.66546
786.90476,0.63120
784.84480,0.59386
782.78484,0.55161
780.72488,0.50134
778.66492,0.44105
776.60496,0.37234
774.54500,0.30055
772.48504,0.23175
770.42508,0.17098
768.36512,0.12222
766.30516,0.08703
764.24520,0.06299
762.18524,0.04623
760.12528,0.03491
758.06532,0.02890
756.00536,0.02825
753.94540,0.03191
751.88544,0.03775
749.82548,0.04469
747.76552,0.05658
745.70556,0.08224
743.64560,0.12980
741.58564,0.19833
739.52568,0.27866
737.46572,0.36318
735.40576,0.45030
733.34580,0.53592
731.28584,0.60758
729.22588,0.65503
727.16592,0.67965
725.10596,0.68904
723.04600,0.68923
720.98604,0.68267
718.92608,0.66834
716.86612,0.64065
714.80616,0.58770
712.74620,0.49358
710.68624,0.35415
708.62628,0.19903
706.56632,0.07971
704.50636,0.02055
702.44640,0.00315
700.38644,0.00033
698.32648,0.00028
696.26652,0.00365
694.20656,0.02764
692.14660,0.09901
690.08664,0.21697
688.02668,0.34280
685.96672,0.44381
683.90676,0.51488
681.84680,0.56238
679.78684,0.59301
677.72688,0.61241
675.66692,0.62495
673.60696,0.63383
671.54700,0.64069
669.48704,0.64860
667.42708,0.66376
665.36712,0.68125
663.30716,0.69711
661.24720,0.71404
659.18724,0.73093
657.12728,0.74640
655.06732,0.76016
653.00736,0.77221
650.94740,0.78274
648.88744,0.79205
646.82748,0.80005
644.76752,0.80625
642.70756,0.80975
640.64760,0.80942
638.58764,0.80418
636.52768,0.79429
634.46772,0.78182
632.40776,0.76936
630.34780,0.75819
628.28783,0.74858
626.22787,0.74039
624.16791,0.73176
622.10795,0.72308
620.04799,0.72158
617.98803,0.73042
615.92807,0.74172
613.86811,0.74941
611.80815,0.75391
609.74819,0.75600
607.68823,0.75547
605.62827,0.75214
603.56831,0.74625
601.50835,0.73852
599.44839,0.72956
597.38843,0.71973
595.32847,0.70968
593.26851,0.69970
591.20855,0.68981
589.14859,0.68010
587.08863,0.67022
585.02867,0.65901
582.96871,0.64492
580.90875,0.62678
578.84879,0.60454
576.78883,0.57874
574.72887,0.55060
572.66891,0.52241
570.60895,0.49589
568.54899,0.47162
566.48903,0.44943
564.42907,0.42872
562.36911,0.40915
560.30915,0.39063
558.24919,0.37286
556.18923,0.35524
554.12927,0.33714
552.06931,0.31762
550.00935,0.29547
547.94939,0.27028
545.88943,0.24307
543.82947,0.21708
541.76951,0.19745
539.70955,0.19064
537.64959,0.20354
535.58963,0.24043
533.52967,0.29933
531.46971,0.37160
529.40975,0.44649
527.34979,0.51719
525.28983,0.57989
523.22987,0.62976
521.16991,0.66697
519.10995,0.69566
517.04999,0.71862
514.99003,0.73735
512.93007,0.75328
510.87011,0.76771
508.81015,0.78075
506.75019,0.79183
504.69023,0.80059
502.63027,0.80729
500.57031,0.81197
498.51035,0.81459
496.45039,0.81563
494.39043,0.81570
492.33047,0.81534
490.27051,0.81459
488.21055,0.81324
486.15059,0.81160
484.09063,0.81028
482.03067,0.80926
479.97071,0.80806
477.91075,0.80689
475.85079,0.80613
473.79083,0.80551
471.73087,0.80508
469.67091,0.80519
467.61095,0.80630
465.55099,0.80849
463.49103,0.81111
461.43107,0.81382
459.37111,0.81677
457.31115,0.82043
455.25119,0.82462
453.19123,0.82904
451.13127,0.83367
449.07131,0.83827
447.01134,0.84321
444.95138,0.84903
442.89142,0.85571
440.83146,0.86245
438.77150,0.86865
436.71154,0.87489
434.65158,0.88146
432.59162,0.88757
430.53166,0.89277
428.47170,0.89716
426.41174,0.90100
424.35178,0.90432
422.29182,0.90678
420.23186,0.90805
418.17190,0.90813
416.11194,0.90729
414.05198,0.90501
411.99202,0.90032
409.93206,0.89342
407.87210,0.88602
405.81214,0.88057
403.75218,0.87922
401.69222,0.88112
399.63226,0.88297
