3997.65486	-0.01349
3995.59527	-0.01296
3993.53569	-0.01285
3991.47610	-0.01241
3989.41652	-0.01150
3987.35693	-0.01111
3985.29735	-0.01125
3983.23776	-0.01136
3981.17817	-0.01164
3979.11859	-0.01195
3977.05900	-0.01172
3974.99942	-0.01140
3972.93983	-0.01177
3970.88025	-0.01234
3968.82066	-0.01232
3966.76108	-0.01218
3964.70149	-0.01252
3962.64191	-0.01267
3960.58232	-0.01223
3958.52274	-0.01175
3956.46315	-0.01147
3954.40357	-0.01147
3952.34398	-0.01195
3950.28440	-0.01231
3948.22481	-0.01186
3946.16523	-0.01132
3944.10564	-0.01135
3942.04606	-0.01155
3939.98647	-0.01170
3937.92689	-0.01178
3935.86730	-0.01173
3933.80772	-0.01130
3931.74813	-0.01067
3929.68855	-0.01081
3927.62896	-0.01167
3925.56937	-0.01202
3923.50979	-0.01161
3921.45020	-0.01108
3919.39062	-0.01027
3917.33103	-0.00961
3915.27145	-0.01043
3913.21186	-0.01184
3911.15228	-0.01221
3909.09269	-0.01192
3907.03311	-0.01167
3904.97352	-0.01105
3902.91394	-0.01021
3900.85435	-0.01019
3898.79477	-0.01065
3896.73518	-0.01057
3894.67560	-0.01022
3892.61601	-0.01020
3890.55643	-0.01039
3888.49684	-0.01037
3886.43726	-0.00977
3884.37767	-0.00921
3882.31809	-0.00926
3880.25850	-0.00943
3878.19892	-0.00969
3876.13933	-0.01042
3874.07974	-0.01116
3872.02016	-0.01094
3869.96057	-0.00991
3867.90099	-0.00952
3865.84140	-0.01011
3863.78182	-0.01026
3861.72223	-0.00944
3859.66265	-0.00892
3857.60306	-0.00944
3855.54348	-0.01019
3853.48389	-0.01000
3851.42431	-0.00893
3849.36472	-0.00850
3847.30514	-0.00894
3845.24555	-0.00988
3843.18597	-0.01020
3841.12638	-0.00969
3839.06680	-0.00931
3837.00721	-0.00927
3834.94763	-0.00896
3832.88804	-0.00840
3830.82846	-0.00835
3828.76887	-0.00909
3826.70929	-0.00990
3824.64970	-0.01039
3822.59012	-0.01056
3820.53053	-0.00984
3818.47094	-0.00888
3816.41136	-0.00856
3814.35177	-0.00865
3812.29219	-0.00907
3810.23260	-0.00974
3808.17302	-0.01015
3806.11343	-0.01020
3804.05385	-0.01087
3801.99426	-0.01193
3799.93468	-0.01231
3797.87509	-0.01206
3795.81551	-0.01151
3793.75592	-0.01111
3791.69634	-0.01104
3789.63675	-0.01100
3787.57717	-0.01084
3785.51758	-0.01079
3783.45800	-0.01093
3781.39841	-0.01099
3779.33883	-0.01044
3777.27924	-0.00974
3775.21966	-0.01008
3773.16007	-0.01116
3771.10049	-0.01162
3769.04090	-0.01104
3766.98132	-0.01046
3764.92173	-0.01047
3762.86214	-0.01088
3760.80256	-0.01133
3758.74297	-0.01105
3756.68339	-0.00985
3754.62380	-0.00878
3752.56422	-0.00830
3750.50463	-0.00754
3748.44505	-0.00636
3746.38546	-0.00533
3744.32588	-0.00503
3742.26629	-0.00582
3740.20671	-0.00681
3738.14712	-0.00751
3736.08754	-0.00794
3734.02795	-0.00837
3731.96837	-0.00882
3729.90878	-0.00903
3727.84920	-0.00897
3725.78961	-0.00853
3723.73003	-0.00834
3721.67044	-0.00832
3719.61086	-0.00808
3717.55127	-0.00761
3715.49169	-0.00800
3713.43210	-0.00960
3711.37251	-0.01067
3709.31293	-0.01013
3707.25334	-0.00919
3705.19376	-0.00869
3703.13417	-0.00881
3701.07459	-0.00906
3699.01500	-0.00927
3696.95542	-0.00944
3694.89583	-0.00913
3692.83625	-0.00859
3690.77666	-0.00829
3688.71708	-0.00820
3686.65749	-0.00846
3684.59791	-0.00907
3682.53832	-0.00968
3680.47874	-0.01003
3678.41915	-0.00979
3676.35957	-0.00875
3674.29998	-0.00734
3672.24040	-0.00723
3670.18081	-0.00830
3668.12123	-0.00891
3666.06164	-0.00870
3664.00206	-0.00842
3661.94247	-0.00836
3659.88289	-0.00851
3657.82330	-0.00846
3655.76371	-0.00778
3653.70413	-0.00784
3651.64454	-0.00897
3649.58496	-0.00830
3647.52537	-0.00547
3645.46579	-0.00410
3643.40620	-0.00462
3641.34662	-0.00546
3639.28703	-0.00551
3637.22745	-0.00512
3635.16786	-0.00478
3633.10828	-0.00441
3631.04869	-0.00420
3628.98911	-0.00373
3626.92952	-0.00238
3624.86994	-0.00140
3622.81035	-0.00119
3620.75077	-0.00096
3618.69118	-0.00013
3616.63160	0.00083
3614.57201	0.00115
3612.51243	0.00113
3610.45284	0.00138
3608.39326	0.00195
3606.33367	0.00216
3604.27408	0.00179
3602.21450	0.00188
3600.15491	0.00254
3598.09533	0.00290
3596.03574	0.00273
3593.97616	0.00240
3591.91657	0.00240
3589.85699	0.00337
3587.79740	0.00492
3585.73782	0.00563
3583.67823	0.00554
3581.61865	0.00591
3579.55906	0.00653
3577.49948	0.00674
3575.43989	0.00721
3573.38031	0.00813
3571.32072	0.00873
3569.26114	0.00918
3567.20155	0.00994
3565.14197	0.01026
3563.08238	0.00995
3561.02280	0.00975
3558.96321	0.00990
3556.90363	0.01012
3554.84404	0.01039
3552.78446	0.01084
3550.72487	0.01162
3548.66528	0.01266
3546.60570	0.01354
3544.54611	0.01391
3542.48653	0.01394
3540.42694	0.01375
3538.36736	0.01362
3536.30777	0.01398
3534.24819	0.01462
3532.18860	0.01515
3530.12902	0.01572
3528.06943	0.01631
3526.00985	0.01649
3523.95026	0.01637
3521.89068	0.01650
3519.83109	0.01691
3517.77151	0.01742
3515.71192	0.01785
3513.65234	0.01814
3511.59275	0.01828
3509.53317	0.01836
3507.47358	0.01859
3505.41400	0.01893
3503.35441	0.01932
3501.29483	0.01965
3499.23524	0.01988
3497.17565	0.02012
3495.11607	0.02032
3493.05648	0.02059
3490.99690	0.02082
3488.93731	0.02072
3486.87773	0.02061
3484.81814	0.02092
3482.75856	0.02122
3480.69897	0.02110
3478.63939	0.02079
3476.57980	0.02078
3474.52022	0.02125
3472.46063	0.02215
3470.40105	0.02318
3468.34146	0.02382
3466.28188	0.02397
3464.22229	0.02398
3462.16271	0.02389
3460.10312	0.02396
3458.04354	0.02463
3455.98395	0.02546
3453.92437	0.02603
3451.86478	0.02649
3449.80520	0.02691
3447.74561	0.02763
3445.68603	0.02846
3443.62644	0.02849
3441.56685	0.02819
3439.50727	0.02834
3437.44768	0.02844
3435.38810	0.02805
3433.32851	0.02788
3431.26893	0.02823
3429.20934	0.02861
3427.14976	0.02930
3425.09017	0.03048
3423.03059	0.03113
3420.97100	0.03116
3418.91142	0.03139
3416.85183	0.03180
3414.79225	0.03221
3412.73266	0.03242
3410.67308	0.03252
3408.61349	0.03304
3406.55391	0.03352
3404.49432	0.03348
3402.43474	0.03351
3400.37515	0.03428
3398.31557	0.03598
3396.25598	0.03659
3394.19640	0.03621
3392.13681	0.03573
3390.07723	0.03590
3388.01764	0.03666
3385.95805	0.03721
3383.89847	0.03759
3381.83888	0.03819
3379.77930	0.03876
3377.71971	0.03912
3375.66013	0.03935
3373.60054	0.03957
3371.54096	0.04019
3369.48137	0.04104
3367.42179	0.04198
3365.36220	0.04299
3363.30262	0.04324
3361.24303	0.04302
3359.18345	0.04367
3357.12386	0.04479
3355.06428	0.04545
3353.00469	0.04599
3350.94511	0.04685
3348.88552	0.04777
3346.82594	0.04859
3344.76635	0.04935
3342.70677	0.04999
3340.64718	0.05055
3338.58760	0.05141
3336.52801	0.05251
3334.46842	0.05329
3332.40884	0.05389
3330.34925	0.05476
3328.28967	0.05592
3326.23008	0.05717
3324.17050	0.05819
3322.11091	0.05883
3320.05133	0.05957
3317.99174	0.06070
3315.93216	0.06178
3313.87257	0.06258
3311.81299	0.06367
3309.75340	0.06507
3307.69382	0.06611
3305.63423	0.06691
3303.57465	0.06795
3301.51506	0.06919
3299.45548	0.07045
3297.39589	0.07162
3295.33631	0.07271
3293.27672	0.07380
3291.21714	0.07477
3289.15755	0.07552
3287.09797	0.07599
3285.03838	0.07631
3282.97880	0.07678
3280.91921	0.07740
3278.85962	0.07792
3276.80004	0.07837
3274.74045	0.07880
3272.68087	0.07885
3270.62128	0.07828
3268.56170	0.07736
3266.50211	0.07665
3264.44253	0.07601
3262.38294	0.07506
3260.32336	0.07400
3258.26377	0.07317
3256.20419	0.07253
3254.14460	0.07148
3252.08502	0.07014
3250.02543	0.06896
3247.96585	0.06791
3245.90626	0.06696
3243.84668	0.06580
3241.78709	0.06441
3239.72751	0.06339
3237.66792	0.06298
3235.60834	0.06279
3233.54875	0.06227
3231.48917	0.06141
3229.42958	0.06069
3227.36999	0.06015
3225.31041	0.05968
3223.25082	0.05913
3221.19124	0.05837
3219.13165	0.05789
3217.07207	0.05783
3215.01248	0.05742
3212.95290	0.05641
3210.89331	0.05580
3208.83373	0.05586
3206.77414	0.05577
3204.71456	0.05508
3202.65497	0.05384
3200.59539	0.05261
3198.53580	0.05222
3196.47622	0.05244
3194.41663	0.05197
3192.35705	0.05061
3190.29746	0.04953
3188.23788	0.04887
3186.17829	0.04794
3184.11871	0.04703
3182.05912	0.04656
3179.99954	0.04623
3177.93995	0.04564
3175.88037	0.04455
3173.82078	0.04314
3171.76119	0.04185
3169.70161	0.04106
3167.64202	0.04076
3165.58244	0.04049
3163.52285	0.03999
3161.46327	0.03941
3159.40368	0.03893
3157.34410	0.03858
3155.28451	0.03841
3153.22493	0.03833
3151.16534	0.03798
3149.10576	0.03714
3147.04617	0.03605
3144.98659	0.03530
3142.92700	0.03497
3140.86742	0.03466
3138.80783	0.03423
3136.74825	0.03371
3134.68866	0.03313
3132.62908	0.03277
3130.56949	0.03273
3128.50991	0.03271
3126.45032	0.03260
3124.39074	0.03251
3122.33115	0.03231
3120.27156	0.03196
3118.21198	0.03192
3116.15239	0.03233
3114.09281	0.03257
3112.03322	0.03233
3109.97364	0.03215
3107.91405	0.03232
3105.85447	0.03242
3103.79488	0.03244
3101.73530	0.03259
3099.67571	0.03274
3097.61613	0.03287
3095.55654	0.03303
3093.49696	0.03323
3091.43737	0.03347
3089.37779	0.03381
3087.31820	0.03414
3085.25862	0.03420
3083.19903	0.03408
3081.13945	0.03414
3079.07986	0.03422
3077.02028	0.03401
3074.96069	0.03384
3072.90111	0.03379
3070.84152	0.03351
3068.78194	0.03314
3066.72235	0.03319
3064.66276	0.03351
3062.60318	0.03353
3060.54359	0.03301
3058.48401	0.03223
3056.42442	0.03185
3054.36484	0.03178
3052.30525	0.03129
3050.24567	0.03039
3048.18608	0.02972
3046.12650	0.02956
3044.06691	0.02947
3042.00733	0.02894
3039.94774	0.02817
3037.88816	0.02750
3035.82857	0.02710
3033.76899	0.02697
3031.70940	0.02688
3029.64982	0.02663
3027.59023	0.02623
3025.53065	0.02556
3023.47106	0.02487
3021.41148	0.02458
3019.35189	0.02453
3017.29231	0.02428
3015.23272	0.02394
3013.17313	0.02393
3011.11355	0.02411
3009.05396	0.02410
3006.99438	0.02393
3004.93479	0.02376
3002.87521	0.02380
3000.81562	0.02419
2998.75604	0.02462
2996.69645	0.02485
2994.63687	0.02500
2992.57728	0.02538
2990.51770	0.02578
2988.45811	0.02609
2986.39853	0.02645
2984.33894	0.02685
2982.27936	0.02689
2980.21977	0.02638
2978.16019	0.02595
2976.10060	0.02604
2974.04102	0.02641
2971.98143	0.02686
2969.92185	0.02716
2967.86226	0.02707
2965.80268	0.02675
2963.74309	0.02656
2961.68351	0.02658
2959.62392	0.02662
2957.56433	0.02655
2955.50475	0.02647
2953.44516	0.02674
2951.38558	0.02742
2949.32599	0.02811
2947.26641	0.02875
2945.20682	0.02930
2943.14724	0.02970
2941.08765	0.03026
2939.02807	0.03111
2936.96848	0.03188
2934.90890	0.03248
2932.84931	0.03342
2930.78973	0.03484
2928.73014	0.03606
2926.67056	0.03655
2924.61097	0.03640
2922.55139	0.03570
2920.49180	0.03393
2918.43222	0.03064
2916.37263	0.02694
2914.31305	0.02496
2912.25346	0.02503
2910.19388	0.02568
2908.13429	0.02608
2906.07471	0.02599
2904.01512	0.02516
2901.95553	0.02412
2899.89595	0.02362
2897.83636	0.02348
2895.77678	0.02318
2893.71719	0.02286
2891.65761	0.02274
2889.59802	0.02248
2887.53844	0.02186
2885.47885	0.02117
2883.41927	0.02093
2881.35968	0.02119
2879.30010	0.02135
2877.24051	0.02137
2875.18093	0.02162
2873.12134	0.02182
2871.06176	0.02178
2869.00217	0.02157
2866.94259	0.02110
2864.88300	0.02065
2862.82342	0.02050
2860.76383	0.02069
2858.70425	0.02145
2856.64466	0.02265
2854.58508	0.02364
2852.52549	0.02357
2850.46590	0.02140
2848.40632	0.01810
2846.34673	0.01631
2844.28715	0.01628
2842.22756	0.01651
2840.16798	0.01651
2838.10839	0.01625
2836.04881	0.01587
2833.98922	0.01574
2831.92964	0.01574
2829.87005	0.01546
2827.81047	0.01497
2825.75088	0.01453
2823.69130	0.01416
2821.63171	0.01386
2819.57213	0.01364
2817.51254	0.01347
2815.45296	0.01328
2813.39337	0.01311
2811.33379	0.01306
2809.27420	0.01300
2807.21462	0.01269
2805.15503	0.01222
2803.09545	0.01191
2801.03586	0.01187
2798.97628	0.01195
2796.91669	0.01204
2794.85710	0.01213
2792.79752	0.01220
2790.73793	0.01219
2788.67835	0.01215
2786.61876	0.01220
2784.55918	0.01211
2782.49959	0.01176
2780.44001	0.01141
2778.38042	0.01125
2776.32084	0.01127
2774.26125	0.01130
2772.20167	0.01130
2770.14208	0.01138
2768.08250	0.01138
2766.02291	0.01098
2763.96333	0.01052
2761.90374	0.01056
2759.84416	0.01081
2757.78457	0.01086
2755.72499	0.01071
2753.66540	0.01040
2751.60582	0.01018
2749.54623	0.01009
2747.48665	0.00990
2745.42706	0.00968
2743.36747	0.00971
2741.30789	0.00993
2739.24830	0.01005
2737.18872	0.01004
2735.12913	0.00986
2733.06955	0.00954
2731.00996	0.00924
2728.95038	0.00895
2726.89079	0.00884
2724.83121	0.00903
2722.77162	0.00925
2720.71204	0.00948
2718.65245	0.00952
2716.59287	0.00907
2714.53328	0.00858
2712.47370	0.00855
2710.41411	0.00880
2708.35453	0.00900
2706.29494	0.00912
2704.23536	0.00921
2702.17577	0.00926
2700.11619	0.00917
2698.05660	0.00887
2695.99702	0.00850
2693.93743	0.00826
2691.87785	0.00813
2689.81826	0.00817
2687.75867	0.00837
2685.69909	0.00847
2683.63950	0.00848
2681.57992	0.00857
2679.52033	0.00855
2677.46075	0.00820
2675.40116	0.00783
2673.34158	0.00767
2671.28199	0.00771
2669.22241	0.00806
2667.16282	0.00842
2665.10324	0.00842
2663.04365	0.00826
2660.98407	0.00811
2658.92448	0.00803
2656.86490	0.00828
2654.80531	0.00853
2652.74573	0.00835
2650.68614	0.00815
2648.62656	0.00808
2646.56697	0.00786
2644.50739	0.00769
2642.44780	0.00782
2640.38822	0.00809
2638.32863	0.00808
2636.26904	0.00781
2634.20946	0.00760
2632.14987	0.00751
2630.09029	0.00755
2628.03070	0.00778
2625.97112	0.00806
2623.91153	0.00808
2621.85195	0.00770
2619.79236	0.00736
2617.73278	0.00729
2615.67319	0.00718
2613.61361	0.00677
2611.55402	0.00631
2609.49444	0.00623
2607.43485	0.00634
2605.37527	0.00625
2603.31568	0.00621
2601.25610	0.00649
2599.19651	0.00663
2597.13693	0.00651
2595.07734	0.00658
2593.01776	0.00682
2590.95817	0.00688
2588.89859	0.00688
2586.83900	0.00668
2584.77942	0.00592
2582.71983	0.00525
2580.66024	0.00531
2578.60066	0.00577
2576.54107	0.00603
2574.48149	0.00596
2572.42190	0.00587
2570.36232	0.00585
2568.30273	0.00591
2566.24315	0.00600
2564.18356	0.00583
2562.12398	0.00537
2560.06439	0.00520
2558.00481	0.00552
2555.94522	0.00559
2553.88564	0.00534
2551.82605	0.00516
2549.76647	0.00489
2547.70688	0.00465
2545.64730	0.00454
2543.58771	0.00431
2541.52813	0.00413
2539.46854	0.00457
2537.40896	0.00531
2535.34937	0.00545
2533.28979	0.00506
2531.23020	0.00487
2529.17062	0.00502
2527.11103	0.00506
2525.05144	0.00460
2522.99186	0.00394
2520.93227	0.00352
2518.87269	0.00354
2516.81310	0.00418
2514.75352	0.00466
2512.69393	0.00428
2510.63435	0.00382
2508.57476	0.00404
2506.51518	0.00450
2504.45559	0.00461
2502.39601	0.00452
2500.33642	0.00457
2498.27684	0.00464
2496.21725	0.00456
2494.15767	0.00433
2492.09808	0.00406
2490.03850	0.00378
2487.97891	0.00340
2485.91933	0.00311
2483.85974	0.00301
2481.80016	0.00283
2479.74057	0.00275
2477.68099	0.00324
2475.62140	0.00398
2473.56181	0.00429
2471.50223	0.00414
2469.44264	0.00398
2467.38306	0.00391
2465.32347	0.00381
2463.26389	0.00377
2461.20430	0.00375
2459.14472	0.00378
2457.08513	0.00397
2455.02555	0.00415
2452.96596	0.00423
2450.90638	0.00422
2448.84679	0.00405
2446.78721	0.00366
2444.72762	0.00337
2442.66804	0.00356
2440.60845	0.00383
2438.54887	0.00374
2436.48928	0.00359
2434.42970	0.00347
2432.37011	0.00320
2430.31053	0.00285
2428.25094	0.00260
2426.19136	0.00268
2424.13177	0.00293
2422.07219	0.00301
2420.01260	0.00291
2417.95301	0.00265
2415.89343	0.00223
2413.83384	0.00187
2411.77426	0.00204
2409.71467	0.00278
2407.65509	0.00330
2405.59550	0.00313
2403.53592	0.00267
2401.47633	0.00237
2399.41675	0.00256
2397.35716	0.00278
2395.29758	0.00270
2393.23799	0.00245
2391.17841	0.00226
2389.11882	0.00224
2387.05924	0.00232
2384.99965	0.00219
2382.94007	0.00204
2380.88048	0.00233
2378.82090	0.00278
2376.76131	0.00287
2374.70173	0.00305
2372.64214	0.00309
2370.58256	0.00284
2368.52297	0.00212
2366.46338	0.00083
2364.40380	0.00094
2362.34421	0.00201
2360.28463	0.00376
2358.22504	0.00278
2356.16546	0.00330
2354.10587	0.00254
2352.04629	0.00195
2349.98670	0.00393
2347.92712	0.00541
2345.86753	0.00389
2343.80795	-0.00132
2341.74836	-0.00059
2339.68878	0.00709
2337.62919	0.00898
2335.56961	0.00226
2333.51002	-0.00494
2331.45044	-0.00591
2329.39085	-0.00115
2327.33127	0.00550
2325.27168	0.01168
2323.21210	0.01424
2321.15251	0.01361
2319.09293	0.01098
2317.03334	0.00908
2314.97376	0.00772
2312.91417	0.00756
2310.85458	0.00727
2308.79500	0.00705
2306.73541	0.00712
2304.67583	0.00657
2302.61624	0.00582
2300.55666	0.00512
2298.49707	0.00448
2296.43749	0.00393
2294.37790	0.00386
2292.31832	0.00392
2290.25873	0.00417
2288.19915	0.00420
2286.13956	0.00401
2284.07998	0.00381
2282.02039	0.00381
2279.96081	0.00372
2277.90122	0.00351
2275.84164	0.00351
2273.78205	0.00343
2271.72247	0.00294
2269.66288	0.00244
2267.60330	0.00235
2265.54371	0.00250
2263.48413	0.00268
2261.42454	0.00267
2259.36495	0.00256
2257.30537	0.00260
2255.24578	0.00246
2253.18620	0.00204
2251.12661	0.00203
2249.06703	0.00231
2247.00744	0.00200
2244.94786	0.00120
2242.88827	0.00089
2240.82869	0.00138
2238.76910	0.00171
2236.70952	0.00163
2234.64993	0.00174
2232.59035	0.00215
2230.53076	0.00208
2228.47118	0.00147
2226.41159	0.00155
2224.35201	0.00220
2222.29242	0.00213
2220.23284	0.00161
2218.17325	0.00173
2216.11367	0.00238
2214.05408	0.00298
2211.99450	0.00339
2209.93491	0.00288
2207.87533	0.00143
2205.81574	0.00088
2203.75615	0.00215
2201.69657	0.00335
2199.63698	0.00351
2197.57740	0.00343
2195.51781	0.00368
2193.45823	0.00425
2191.39864	0.00440
2189.33906	0.00369
2187.27947	0.00267
2185.21989	0.00245
2183.16030	0.00293
2181.10072	0.00286
2179.04113	0.00256
2176.98155	0.00233
2174.92196	0.00161
2172.86238	0.00101
2170.80279	0.00149
2168.74321	0.00195
2166.68362	0.00115
2164.62404	0.00045
2162.56445	0.00106
2160.50487	0.00108
2158.44528	-0.00098
2156.38570	-0.00213
2154.32611	-0.00076
2152.26652	0.00040
2150.20694	-0.00030
2148.14735	-0.00076
2146.08777	0.00033
2144.02818	0.00130
2141.96860	0.00157
2139.90901	0.00124
2137.84943	0.00050
2135.78984	0.00011
2133.73026	-0.00009
2131.67067	-0.00042
2129.61109	-0.00058
2127.55150	-0.00023
2125.49192	0.00019
2123.43233	0.00025
2121.37275	0.00025
2119.31316	0.00053
2117.25358	0.00102
2115.19399	0.00133
2113.13441	0.00114
2111.07482	0.00083
2109.01524	0.00085
2106.95565	0.00105
2104.89607	0.00111
2102.83648	0.00121
2100.77690	0.00126
2098.71731	0.00005
2096.65772	-0.00086
2094.59814	-0.00057
2092.53855	0.00067
2090.47897	0.00143
2088.41938	0.00119
2086.35980	0.00099
2084.30021	0.00142
2082.24063	0.00189
2080.18104	0.00189
2078.12146	0.00146
2076.06187	0.00126
2074.00229	0.00156
2071.94270	0.00168
2069.88312	0.00111
2067.82353	0.00026
2065.76395	-0.00007
2063.70436	0.00060
2061.64478	0.00173
2059.58519	0.00227
2057.52561	0.00218
2055.46602	0.00214
2053.40644	0.00211
2051.34685	0.00137
2049.28727	-0.00002
2047.22768	-0.00099
2045.16810	-0.00088
2043.10851	-0.00021
2041.04892	-0.00027
2038.98934	-0.00117
2036.92975	-0.00185
2034.87017	-0.00195
2032.81058	-0.00136
2030.75100	-0.00074
2028.69141	-0.00040
2026.63183	0.00011
2024.57224	0.00065
2022.51266	0.00066
2020.45307	-0.00019
2018.39349	-0.00076
2016.33390	-0.00022
2014.27432	0.00039
2012.21473	0.00008
2010.15515	-0.00088
2008.09556	-0.00141
2006.03598	-0.00084
2003.97639	0.00019
2001.91681	0.00093
1999.85722	0.00157
1997.79764	0.00196
1995.73805	0.00151
1993.67847	0.00027
1991.61888	-0.00069
1989.55929	-0.00067
1987.49971	-0.00012
1985.44012	0.00088
1983.38054	0.00157
1981.32095	0.00100
1979.26137	-0.00013
1977.20178	-0.00089
1975.14220	-0.00111
1973.08261	-0.00110
1971.02303	-0.00108
1968.96344	-0.00136
1966.90386	-0.00180
1964.84427	-0.00187
1962.78469	-0.00201
1960.72510	-0.00220
1958.66552	-0.00183
1956.60593	-0.00094
1954.54635	-0.00012
1952.48676	0.00001
1950.42718	-0.00010
1948.36759	-0.00009
1946.30801	-0.00052
1944.24842	-0.00115
1942.18884	-0.00119
1940.12925	-0.00115
1938.06967	-0.00184
1936.01008	-0.00270
1933.95049	-0.00270
1931.89091	-0.00180
1929.83132	-0.00094
1927.77174	-0.00074
1925.71215	-0.00077
1923.65257	-0.00043
1921.59298	0.00001
1919.53340	-0.00005
1917.47381	-0.00051
1915.41423	-0.00100
1913.35464	-0.00109
1911.29506	-0.00067
1909.23547	-0.00031
1907.17589	-0.00039
1905.11630	-0.00067
1903.05672	-0.00102
1900.99713	-0.00133
1898.93755	-0.00151
1896.87796	-0.00159
1894.81838	-0.00140
1892.75879	-0.00102
1890.69921	-0.00089
1888.63962	-0.00094
1886.58004	-0.00087
1884.52045	-0.00077
1882.46086	-0.00077
1880.40128	-0.00079
1878.34169	-0.00079
1876.28211	-0.00086
1874.22252	-0.00096
1872.16294	-0.00088
1870.10335	-0.00070
1868.04377	-0.00088
1865.98418	-0.00126
1863.92460	-0.00117
1861.86501	-0.00069
1859.80543	-0.00047
1857.74584	-0.00069
1855.68626	-0.00110
1853.62667	-0.00147
1851.56709	-0.00154
1849.50750	-0.00130
1847.44792	-0.00088
1845.38833	-0.00039
1843.32875	0.00001
1841.26916	0.00011
1839.20958	-0.00003
1837.14999	-0.00005
1835.09041	0.00000
1833.03082	-0.00028
1830.97124	-0.00088
1828.91165	-0.00122
1826.85206	-0.00109
1824.79248	-0.00089
1822.73289	-0.00078
1820.67331	-0.00076
1818.61372	-0.00071
1816.55414	-0.00056
1814.49455	-0.00035
1812.43497	-0.00013
1810.37538	0.00016
1808.31580	0.00055
1806.25621	0.00091
1804.19663	0.00116
1802.13704	0.00131
1800.07746	0.00132
1798.01787	0.00134
1795.95829	0.00143
1793.89870	0.00146
1791.83912	0.00160
1789.77953	0.00210
1787.71995	0.00284
1785.66036	0.00373
1783.60078	0.00470
1781.54119	0.00558
1779.48161	0.00642
1777.42202	0.00727
1775.36243	0.00791
1773.30285	0.00849
1771.24326	0.00967
1769.18368	0.01141
1767.12409	0.01309
1765.06451	0.01447
1763.00492	0.01587
1760.94534	0.01759
1758.88575	0.01937
1756.82617	0.02091
1754.76658	0.02204
1752.70700	0.02284
1750.64741	0.02357
1748.58783	0.02420
1746.52824	0.02438
1744.46866	0.02384
1742.40907	0.02260
1740.34949	0.02086
1738.28990	0.01896
1736.23032	0.01712
1734.17073	0.01549
1732.11115	0.01428
1730.05156	0.01323
1727.99198	0.01228
1725.93239	0.01157
1723.87281	0.01107
1721.81322	0.01058
1719.75363	0.01009
1717.69405	0.01015
1715.63446	0.01120
1713.57488	0.01255
1711.51529	0.01379
1709.45571	0.01504
1707.39612	0.01675
1705.33654	0.01918
1703.27695	0.02160
1701.21737	0.02393
1699.15778	0.02683
1697.09820	0.02967
1695.03861	0.03217
1692.97903	0.03420
1690.91944	0.03578
1688.85986	0.03700
1686.80027	0.03784
1684.74069	0.03929
1682.68110	0.04205
1680.62152	0.04453
1678.56193	0.04618
1676.50235	0.04780
1674.44276	0.04998
1672.38318	0.05226
1670.32359	0.05476
1668.26401	0.05760
1666.20442	0.05971
1664.14483	0.06135
1662.08525	0.06355
1660.02566	0.06591
1657.96608	0.06729
1655.90649	0.06782
1653.84691	0.06948
1651.78732	0.07269
1649.72774	0.07463
1647.66815	0.07590
1645.60857	0.07810
1643.54898	0.08032
1641.48940	0.08172
1639.42981	0.08241
1637.37023	0.08329
1635.31064	0.08558
1633.25106	0.08829
1631.19147	0.08988
1629.13189	0.09065
1627.07230	0.09106
1625.01272	0.09092
1622.95313	0.09018
1620.89355	0.08882
1618.83396	0.08667
1616.77438	0.08412
1614.71479	0.08176
1612.65520	0.07926
1610.59562	0.07611
1608.53603	0.07245
1606.47645	0.06869
1604.41686	0.06509
1602.35728	0.06182
1600.29769	0.05893
1598.23811	0.05627
1596.17852	0.05372
1594.11894	0.05136
1592.05935	0.04920
1589.99977	0.04725
1587.94018	0.04561
1585.88060	0.04441
1583.82101	0.04372
1581.76143	0.04332
1579.70184	0.04284
1577.64226	0.04248
1575.58267	0.04282
1573.52309	0.04353
1571.46350	0.04419
1569.40392	0.04542
1567.34433	0.04725
1565.28475	0.04882
1563.22516	0.04962
1561.16558	0.05007
1559.10599	0.05201
1557.04640	0.05567
1554.98682	0.05825
1552.92723	0.05982
1550.86765	0.06117
1548.80806	0.06249
1546.74848	0.06348
1544.68889	0.06410
1542.62931	0.06474
1540.56972	0.06609
1538.51014	0.06806
1536.45055	0.06926
1534.39097	0.06990
1532.33138	0.07078
1530.27180	0.07162
1528.21221	0.07224
1526.15263	0.07290
1524.09304	0.07339
1522.03346	0.07386
1519.97387	0.07471
1517.91429	0.07568
1515.85470	0.07659
1513.79512	0.07688
1511.73553	0.07601
1509.67595	0.07402
1507.61636	0.07137
1505.55677	0.06899
1503.49719	0.06712
1501.43760	0.06510
1499.37802	0.06244
1497.31843	0.05944
1495.25885	0.05667
1493.19926	0.05415
1491.13968	0.05163
1489.08009	0.04914
1487.02051	0.04706
1484.96092	0.04546
1482.90134	0.04425
1480.84175	0.04341
1478.78217	0.04285
1476.72258	0.04243
1474.66300	0.04211
1472.60341	0.04209
1470.54383	0.04244
1468.48424	0.04283
1466.42466	0.04323
1464.36507	0.04414
1462.30549	0.04537
1460.24590	0.04652
1458.18632	0.04835
1456.12673	0.05098
1454.06715	0.05271
1452.00756	0.05341
1449.94797	0.05378
1447.88839	0.05402
1445.82880	0.05381
1443.76922	0.05287
1441.70963	0.05139
1439.65005	0.04962
1437.59046	0.04776
1435.53088	0.04609
1433.47129	0.04471
1431.41171	0.04350
1429.35212	0.04259
1427.29254	0.04210
1425.23295	0.04179
1423.17337	0.04153
1421.11378	0.04149
1419.05420	0.04183
1416.99461	0.04217
1414.93503	0.04203
1412.87544	0.04156
1410.81586	0.04105
1408.75627	0.04050
1406.69669	0.03990
1404.63710	0.03931
1402.57752	0.03876
1400.51793	0.03828
1398.45834	0.03800
1396.39876	0.03792
1394.33917	0.03802
1392.27959	0.03836
1390.22000	0.03885
1388.16042	0.03940
1386.10083	0.03986
1384.04125	0.04017
1381.98166	0.04045
1379.92208	0.04063
1377.86249	0.04054
1375.80291	0.04035
1373.74332	0.04038
1371.68374	0.04049
1369.62415	0.04033
1367.56457	0.03987
1365.50498	0.03926
1363.44540	0.03866
1361.38581	0.03811
1359.32623	0.03744
1357.26664	0.03669
1355.20706	0.03595
1353.14747	0.03521
1351.08789	0.03449
1349.02830	0.03386
1346.96872	0.03338
1344.90913	0.03302
1342.84954	0.03272
1340.78996	0.03256
1338.73037	0.03251
1336.67079	0.03226
1334.61120	0.03172
1332.55162	0.03114
1330.49203	0.03065
1328.43245	0.03018
1326.37286	0.02979
1324.31328	0.02960
1322.25369	0.02954
1320.19411	0.02947
1318.13452	0.02940
1316.07494	0.02931
1314.01535	0.02919
1311.95577	0.02909
1309.89618	0.02896
1307.83660	0.02889
1305.77701	0.02895
1303.71743	0.02897
1301.65784	0.02890
1299.59826	0.02879
1297.53867	0.02868
1295.47909	0.02859
1293.41950	0.02859
1291.35991	0.02868
1289.30033	0.02881
1287.24074	0.02901
1285.18116	0.02941
1283.12157	0.02996
1281.06199	0.03058
1279.00240	0.03121
1276.94282	0.03185
1274.88323	0.03249
1272.82365	0.03313
1270.76406	0.03378
1268.70448	0.03441
1266.64489	0.03496
1264.58531	0.03542
1262.52572	0.03588
1260.46614	0.03630
1258.40655	0.03668
1256.34697	0.03714
1254.28738	0.03778
1252.22780	0.03850
1250.16821	0.03924
1248.10863	0.03994
1246.04904	0.04061
1243.98946	0.04134
1241.92987	0.04212
1239.87029	0.04284
1237.81070	0.04341
1235.75111	0.04381
1233.69153	0.04408
1231.63194	0.04438
1229.57236	0.04466
1227.51277	0.04485
1225.45319	0.04503
1223.39360	0.04521
1221.33402	0.04530
1219.27443	0.04526
1217.21485	0.04511
1215.15526	0.04473
1213.09568	0.04408
1211.03609	0.04323
1208.97651	0.04223
1206.91692	0.04119
1204.85734	0.04025
1202.79775	0.03946
1200.73817	0.03875
1198.67858	0.03817
1196.61900	0.03777
1194.55941	0.03764
1192.49983	0.03783
1190.44024	0.03825
1188.38066	0.03882
1186.32107	0.03941
1184.26149	0.03993
1182.20190	0.04031
1180.14231	0.04034
1178.08273	0.03988
1176.02314	0.03904
1173.96356	0.03798
1171.90397	0.03678
1169.84439	0.03551
1167.78480	0.03422
1165.72522	0.03313
1163.66563	0.03232
1161.60605	0.03154
1159.54646	0.03058
1157.48688	0.02965
1155.42729	0.02895
1153.36771	0.02838
1151.30812	0.02796
1149.24854	0.02784
1147.18895	0.02803
1145.12937	0.02842
1143.06978	0.02897
1141.01020	0.02965
1138.95061	0.03041
1136.89103	0.03116
1134.83144	0.03173
1132.77186	0.03203
1130.71227	0.03218
1128.65268	0.03226
1126.59310	0.03223
1124.53351	0.03204
1122.47393	0.03175
1120.41434	0.03154
1118.35476	0.03143
1116.29517	0.03139
1114.23559	0.03151
1112.17600	0.03185
1110.11642	0.03220
1108.05683	0.03245
1105.99725	0.03288
1103.93766	0.03360
1101.87808	0.03429
1099.81849	0.03477
1097.75891	0.03518
1095.69932	0.03575
1093.63974	0.03636
1091.58015	0.03680
1089.52057	0.03722
1087.46098	0.03774
1085.40140	0.03820
1083.34181	0.03837
1081.28223	0.03826
1079.22264	0.03795
1077.16306	0.03739
1075.10347	0.03648
1073.04388	0.03539
1070.98430	0.03437
1068.92471	0.03345
1066.86513	0.03261
1064.80554	0.03196
1062.74596	0.03165
1060.68637	0.03168
1058.62679	0.03197
1056.56720	0.03240
1054.50762	0.03290
1052.44803	0.03359
1050.38845	0.03442
1048.32886	0.03521
1046.26928	0.03585
1044.20969	0.03624
1042.15011	0.03615
1040.09052	0.03552
1038.03094	0.03458
1035.97135	0.03360
1033.91177	0.03274
1031.85218	0.03206
1029.79260	0.03149
1027.73301	0.03092
1025.67343	0.03033
1023.61384	0.02976
1021.55425	0.02917
1019.49467	0.02849
1017.43508	0.02771
1015.37550	0.02696
1013.31591	0.02622
1011.25633	0.02544
1009.19674	0.02480
1007.13716	0.02420
1005.07757	0.02348
1003.01799	0.02274
1000.95840	0.02209
998.89882	0.02151
996.83923	0.02096
994.77965	0.02049
992.72006	0.02012
990.66048	0.01977
988.60089	0.01935
986.54131	0.01897
984.48172	0.01872
982.42214	0.01846
980.36255	0.01826
978.30297	0.01824
976.24338	0.01837
974.18380	0.01873
972.12421	0.01937
970.06463	0.02015
968.00504	0.02088
965.94545	0.02134
963.88587	0.02126
961.82628	0.02071
959.76670	0.01993
957.70711	0.01909
955.64753	0.01843
953.58794	0.01800
951.52836	0.01763
949.46877	0.01726
947.40919	0.01689
945.34960	0.01652
943.29002	0.01620
941.23043	0.01593
939.17085	0.01570
937.11126	0.01553
935.05168	0.01535
932.99209	0.01517
930.93251	0.01507
928.87292	0.01500
926.81334	0.01487
924.75375	0.01473
922.69417	0.01461
920.63458	0.01445
918.57500	0.01431
916.51541	0.01413
914.45582	0.01383
912.39624	0.01356
910.33665	0.01341
908.27707	0.01334
906.21748	0.01333
904.15790	0.01335
902.09831	0.01336
900.03873	0.01333
897.97914	0.01324
895.91956	0.01312
893.85997	0.01301
891.80039	0.01289
889.74080	0.01289
887.68122	0.01299
885.62163	0.01297
883.56205	0.01302
881.50246	0.01339
879.44288	0.01395
877.38329	0.01444
875.32371	0.01472
873.26412	0.01480
871.20454	0.01467
869.14495	0.01432
867.08537	0.01398
865.02578	0.01396
862.96620	0.01416
860.90661	0.01420
858.84702	0.01406
856.78744	0.01398
854.72785	0.01407
852.66827	0.01427
850.60868	0.01440
848.54910	0.01440
846.48951	0.01442
844.42993	0.01449
842.37034	0.01451
840.31076	0.01440
838.25117	0.01419
836.19159	0.01404
834.13200	0.01410
832.07242	0.01422
830.01283	0.01430
827.95325	0.01441
825.89366	0.01448
823.83408	0.01442
821.77449	0.01439
819.71491	0.01434
817.65532	0.01418
815.59574	0.01412
813.53615	0.01433
811.47657	0.01455
809.41698	0.01463
807.35740	0.01470
805.29781	0.01489
803.23822	0.01512
801.17864	0.01525
799.11905	0.01531
797.05947	0.01540
794.99988	0.01545
792.94030	0.01543
790.88071	0.01548
788.82113	0.01569
786.76154	0.01601
784.70196	0.01629
782.64237	0.01655
780.58279	0.01680
778.52320	0.01708
776.46362	0.01746
774.40403	0.01789
772.34445	0.01819
770.28486	0.01827
768.22528	0.01815
766.16569	0.01808
764.10611	0.01821
762.04652	0.01842
759.98694	0.01864
757.92735	0.01888
755.86777	0.01898
753.80818	0.01898
751.74859	0.01898
749.68901	0.01908
747.62942	0.01923
745.56984	0.01921
743.51025	0.01901
741.45067	0.01887
739.39108	0.01885
737.33150	0.01888
735.27191	0.01894
733.21233	0.01909
731.15274	0.01935
729.09316	0.01965
727.03357	0.01999
724.97399	0.02039
722.91440	0.02090
720.85482	0.02154
718.79523	0.02216
716.73565	0.02281
714.67606	0.02332
712.61648	0.02368
710.55689	0.02404
708.49731	0.02451
706.43772	0.02503
704.37814	0.02552
702.31855	0.02596
700.25897	0.02620
698.19938	0.02615
696.13979	0.02600
694.08021	0.02600
692.02062	0.02614
689.96104	0.02622
687.90145	0.02629
685.84187	0.02627
683.78228	0.02582
681.72270	0.02549
679.66311	0.02575
677.60353	0.02592
675.54394	0.02571
673.48436	0.02575
671.42477	0.02562
669.36519	0.02492
667.30560	0.02691
665.24602	0.02650
663.18643	0.02611
661.12685	0.02603
659.06726	0.02577
657.00768	0.02560
654.94809	0.02556
652.88851	0.02551
650.82892	0.02575
648.76934	0.02604
646.70975	0.02600
644.65016	0.02593
642.59058	0.02589
640.53099	0.02587
638.47141	0.02596
636.41182	0.02609
634.35224	0.02618
632.29265	0.02611
630.23307	0.02592
628.17348	0.02584
626.11390	0.02589
624.05431	0.02610
621.99473	0.02638
619.93514	0.02658
617.87556	0.02661
615.81597	0.02658
613.75639	0.02653
611.69680	0.02635
609.63722	0.02618
607.57763	0.02620
605.51805	0.02624
603.45846	0.02607
601.39888	0.02595
599.33929	0.02602
597.27971	0.02609
595.22012	0.02609
593.16054	0.02599
591.10095	0.02578
589.04136	0.02558
586.98178	0.02553
584.92219	0.02558
582.86261	0.02557
580.80302	0.02553
578.74344	0.02558
576.68385	0.02569
574.62427	0.02582
572.56468	0.02587
570.50510	0.02578
568.44551	0.02561
566.38593	0.02545
564.32634	0.02539
562.26676	0.02545
560.20717	0.02558
558.14759	0.02569
556.08800	0.02574
554.02842	0.02583
551.96883	0.02604
549.90925	0.02618
547.84966	0.02603
545.79008	0.02575
543.73049	0.02572
541.67091	0.02591
539.61132	0.02602
537.55173	0.02592
535.49215	0.02571
533.43256	0.02531
531.37298	0.02485
529.31339	0.02468
527.25381	0.02485
525.19422	0.02511
523.13464	0.02520
521.07505	0.02503
519.01547	0.02474
516.95588	0.02456
514.89630	0.02442
512.83671	0.02414
510.77713	0.02378
508.71754	0.02350
506.65796	0.02340
504.59837	0.02345
502.53879	0.02353
500.47920	0.02349
498.41962	0.02337
496.36003	0.02320
494.30045	0.02301
492.24086	0.02275
490.18128	0.02241
488.12169	0.02217
486.06211	0.02214
484.00252	0.02222
481.94293	0.02224
479.88335	0.02214
477.82376	0.02190
475.76418	0.02181
473.70459	0.02207
471.64501	0.02223
469.58542	0.02198
467.52584	0.02180
465.46625	0.02195
463.40667	0.02213
461.34708	0.02199
459.28750	0.02162
457.22791	0.02139
455.16833	0.02143
453.10874	0.02163
451.04916	0.02194
448.98957	0.02212
446.92999	0.02204
444.87040	0.02197
442.81082	0.02213
440.75123	0.02218
438.69165	0.02188
436.63206	0.02149
434.57248	0.02121
432.51289	0.02082
430.45330	0.02029
428.39372	0.02010
426.33413	0.02032
424.27455	0.02029
422.21496	0.01968
420.15538	0.01922
418.09579	0.01951
416.03621	0.01992
413.97662	0.02008
411.91704	0.02006
409.85745	0.01988
407.79787	0.01957
405.73828	0.01928
403.67870	0.01921
401.61911	0.01954
399.55953	0.02025
