3997.70013,0.03309
3995.64052,0.03316
3993.58092,0.03347
3991.52131,0.03327
3989.46170,0.03235
3987.40209,0.03132
3985.34248,0.03093
3983.28287,0.03121
3981.22327,0.03187
3979.16366,0.03256
3977.10405,0.03260
3975.04444,0.03247
3972.98483,0.03318
3970.92522,0.03404
3968.86561,0.03389
3966.80601,0.03321
3964.74640,0.03302
3962.68679,0.03306
3960.62718,0.03285
3958.56757,0.03259
3956.50796,0.03230
3954.44835,0.03220
3952.38875,0.03220
3950.32914,0.03213
3948.26953,0.03248
3946.20992,0.03282
3944.15031,0.03280
3942.09070,0.03270
3940.03109,0.03263
3937.97149,0.03257
3935.91188,0.03227
3933.85227,0.03162
3931.79266,0.03128
3929.73305,0.03171
3927.67344,0.03200
3925.61384,0.03188
3923.55423,0.03203
3921.49462,0.03249
3919.43501,0.03289
3917.37540,0.03271
3915.31579,0.03198
3913.25618,0.03145
3911.19658,0.03114
3909.13697,0.03104
3907.07736,0.03136
3905.01775,0.03167
3902.95814,0.03180
3900.89853,0.03209
3898.83892,0.03202
3896.77932,0.03137
3894.71971,0.03122
3892.66010,0.03173
3890.60049,0.03187
3888.54088,0.03143
3886.48127,0.03094
3884.42166,0.03060
3882.36206,0.03022
3880.30245,0.02993
3878.24284,0.03031
3876.18323,0.03107
3874.12362,0.03167
3872.06401,0.03189
3870.00441,0.03150
3867.94480,0.03065
3865.88519,0.02985
3863.82558,0.02969
3861.76597,0.03031
3859.70636,0.03058
3857.64675,0.03023
3855.58715,0.02973
3853.52754,0.02983
3851.46793,0.03107
3849.40832,0.03196
3847.34871,0.03183
3845.28910,0.03128
3843.22949,0.03117
3841.16989,0.03153
3839.11028,0.03183
3837.05067,0.03161
3834.99106,0.03102
3832.93145,0.03059
3830.87184,0.03044
3828.81223,0.03037
3826.75263,0.03018
3824.69302,0.03008
3822.63341,0.03032
3820.57380,0.03090
3818.51419,0.03117
3816.45458,0.03079
3814.39498,0.03035
3812.33537,0.02996
3810.27576,0.02958
3808.21615,0.02969
3806.15654,0.03051
3804.09693,0.03141
3802.03732,0.03197
3799.97772,0.03199
3797.91811,0.03117
3795.85850,0.03034
3793.79889,0.03029
3791.73928,0.03025
3789.67967,0.03015
3787.62006,0.03012
3785.56046,0.02979
3783.50085,0.02948
3781.44124,0.02963
3779.38163,0.02996
3777.32202,0.03021
3775.26241,0.03062
3773.20280,0.03085
3771.14320,0.03034
3769.08359,0.02968
3767.02398,0.02966
3764.96437,0.02998
3762.90476,0.03007
3760.84515,0.02981
3758.78555,0.02983
3756.72594,0.03023
3754.66633,0.03026
3752.60672,0.02986
3750.54711,0.02942
3748.48750,0.02926
3746.42789,0.02941
3744.36829,0.02927
3742.30868,0.02876
3740.24907,0.02868
3738.18946,0.02865
3736.12985,0.02788
3734.07024,0.02718
3732.01063,0.02765
3729.95103,0.02837
3727.89142,0.02898
3725.83181,0.02951
3723.77220,0.02959
3721.71259,0.02952
3719.65298,0.02932
3717.59337,0.02905
3715.53377,0.02898
3713.47416,0.02881
3711.41455,0.02878
3709.35494,0.02926
3707.29533,0.02927
3705.23572,0.02875
3703.17612,0.02863
3701.11651,0.02879
3699.05690,0.02903
3696.99729,0.02973
3694.93768,0.03028
3692.87807,0.02985
3690.81846,0.02850
3688.75886,0.02746
3686.69925,0.02761
3684.63964,0.02795
3682.58003,0.02811
3680.52042,0.02815
3678.46081,0.02812
3676.40120,0.02852
3674.34160,0.02872
3672.28199,0.02789
3670.22238,0.02723
3668.16277,0.02763
3666.10316,0.02822
3664.04355,0.02842
3661.98394,0.02838
3659.92434,0.02841
3657.86473,0.02855
3655.80512,0.02851
3653.74551,0.02843
3651.68590,0.02863
3649.62629,0.02892
3647.56669,0.02894
3645.50708,0.02881
3643.44747,0.02861
3641.38786,0.02860
3639.32825,0.02891
3637.26864,0.02930
3635.20903,0.02940
3633.14943,0.02883
3631.08982,0.02800
3629.03021,0.02794
3626.97060,0.02895
3624.91099,0.02953
3622.85138,0.02931
3620.79177,0.02922
3618.73217,0.02964
3616.67256,0.03003
3614.61295,0.03046
3612.55334,0.03086
3610.49373,0.03073
3608.43412,0.03059
3606.37451,0.03083
3604.31491,0.03054
3602.25530,0.02972
3600.19569,0.02946
3598.13608,0.02988
3596.07647,0.03029
3594.01686,0.03044
3591.95726,0.03049
3589.89765,0.03054
3587.83804,0.03069
3585.77843,0.03110
3583.71882,0.03125
3581.65921,0.03117
3579.59960,0.03153
3577.54000,0.03208
3575.48039,0.03216
3573.42078,0.03211
3571.36117,0.03271
3569.30156,0.03368
3567.24195,0.03404
3565.18234,0.03347
3563.12274,0.03289
3561.06313,0.03286
3559.00352,0.03303
3556.94391,0.03326
3554.88430,0.03365
3552.82469,0.03402
3550.76508,0.03411
3548.70548,0.03413
3546.64587,0.03444
3544.58626,0.03476
3542.52665,0.03454
3540.46704,0.03422
3538.40743,0.03471
3536.34783,0.03563
3534.28822,0.03575
3532.22861,0.03515
3530.16900,0.03496
3528.10939,0.03553
3526.04978,0.03660
3523.99017,0.03757
3521.93057,0.03791
3519.87096,0.03772
3517.81135,0.03743
3515.75174,0.03709
3513.69213,0.03659
3511.63252,0.03632
3509.57291,0.03647
3507.51331,0.03693
3505.45370,0.03775
3503.39409,0.03831
3501.33448,0.03816
3499.27487,0.03787
3497.21526,0.03812
3495.15565,0.03893
3493.09605,0.03949
3491.03644,0.03935
3488.97683,0.03905
3486.91722,0.03903
3484.85761,0.03906
3482.79800,0.03884
3480.73840,0.03869
3478.67879,0.03886
3476.61918,0.03903
3474.55957,0.03924
3472.49996,0.03939
3470.44035,0.03921
3468.38074,0.03930
3466.32114,0.03969
3464.26153,0.04002
3462.20192,0.04046
3460.14231,0.04082
3458.08270,0.04099
3456.02309,0.04095
3453.96348,0.04056
3451.90388,0.04025
3449.84427,0.04059
3447.78466,0.04116
3445.72505,0.04115
3443.66544,0.04086
3441.60583,0.04064
3439.54622,0.04056
3437.48662,0.04082
3435.42701,0.04138
3433.36740,0.04178
3431.30779,0.04187
3429.24818,0.04208
3427.18857,0.04252
3425.12897,0.04269
3423.06936,0.04252
3421.00975,0.04264
3418.95014,0.04309
3416.89053,0.04362
3414.83092,0.04406
3412.77131,0.04426
3410.71171,0.04449
3408.65210,0.04479
3406.59249,0.04519
3404.53288,0.04577
3402.47327,0.04637
3400.41366,0.04678
3398.35405,0.04676
3396.29445,0.04681
3394.23484,0.04733
3392.17523,0.04734
3390.11562,0.04670
3388.05601,0.04647
3385.99640,0.04676
3383.93679,0.04730
3381.87719,0.04801
3379.81758,0.04860
3377.75797,0.04906
3375.69836,0.04975
3373.63875,0.05066
3371.57914,0.05130
3369.51954,0.05146
3367.45993,0.05139
3365.40032,0.05133
3363.34071,0.05152
3361.28110,0.05229
3359.22149,0.05336
3357.16188,0.05365
3355.10228,0.05337
3353.04267,0.05369
3350.98306,0.05445
3348.92345,0.05506
3346.86384,0.05596
3344.80423,0.05747
3342.74462,0.05885
3340.68502,0.05957
3338.62541,0.06012
3336.56580,0.06089
3334.50619,0.06171
3332.44658,0.06256
3330.38697,0.06371
3328.32736,0.06503
3326.26776,0.06633
3324.20815,0.06786
3322.14854,0.06964
3320.08893,0.07139
3318.02932,0.07287
3315.96971,0.07430
3313.91011,0.07630
3311.85050,0.07853
3309.79089,0.08026
3307.73128,0.08177
3305.67167,0.08333
3303.61206,0.08486
3301.55245,0.08654
3299.49285,0.08841
3297.43324,0.09054
3295.37363,0.09287
3293.31402,0.09487
3291.25441,0.09627
3289.19480,0.09732
3287.13519,0.09834
3285.07559,0.09945
3283.01598,0.10049
3280.95637,0.10129
3278.89676,0.10185
3276.83715,0.10201
3274.77754,0.10155
3272.71793,0.10085
3270.65833,0.10032
3268.59872,0.09975
3266.53911,0.09891
3264.47950,0.09798
3262.41989,0.09719
3260.36028,0.09633
3258.30068,0.09518
3256.24107,0.09379
3254.18146,0.09244
3252.12185,0.09124
3250.06224,0.09001
3248.00263,0.08874
3245.94302,0.08776
3243.88342,0.08717
3241.82381,0.08631
3239.76420,0.08508
3237.70459,0.08404
3235.64498,0.08309
3233.58537,0.08213
3231.52576,0.08122
3229.46616,0.08022
3227.40655,0.07951
3225.34694,0.07914
3223.28733,0.07849
3221.22772,0.07754
3219.16811,0.07653
3217.10850,0.07580
3215.04890,0.07556
3212.98929,0.07529
3210.92968,0.07463
3208.87007,0.07384
3206.81046,0.07305
3204.75085,0.07221
3202.69125,0.07135
3200.63164,0.07042
3198.57203,0.06957
3196.51242,0.06907
3194.45281,0.06866
3192.39320,0.06792
3190.33359,0.06708
3188.27399,0.06656
3186.21438,0.06614
3184.15477,0.06536
3182.09516,0.06456
3180.03555,0.06403
3177.97594,0.06329
3175.91633,0.06238
3173.85673,0.06161
3171.79712,0.06093
3169.73751,0.06033
3167.67790,0.05993
3165.61829,0.05979
3163.55868,0.05970
3161.49907,0.05943
3159.43947,0.05897
3157.37986,0.05834
3155.32025,0.05774
3153.26064,0.05729
3151.20103,0.05671
3149.14142,0.05602
3147.08182,0.05560
3145.02221,0.05548
3142.96260,0.05549
3140.90299,0.05545
3138.84338,0.05522
3136.78377,0.05477
3134.72416,0.05430
3132.66456,0.05393
3130.60495,0.05351
3128.54534,0.05316
3126.48573,0.05314
3124.42612,0.05346
3122.36651,0.05352
3120.30690,0.05320
3118.24730,0.05303
3116.18769,0.05295
3114.12808,0.05289
3112.06847,0.05308
3110.00886,0.05324
3107.94925,0.05312
3105.88965,0.05301
3103.83004,0.05306
3101.77043,0.05293
3099.71082,0.05264
3097.65121,0.05268
3095.59160,0.05307
3093.53199,0.05369
3091.47239,0.05435
3089.41278,0.05467
3087.35317,0.05469
3085.29356,0.05459
3083.23395,0.05460
3081.17434,0.05481
3079.11473,0.05514
3077.05513,0.05532
3074.99552,0.05500
3072.93591,0.05472
3070.87630,0.05479
3068.81669,0.05474
3066.75708,0.05451
3064.69747,0.05407
3062.63787,0.05391
3060.57826,0.05431
3058.51865,0.05448
3056.45904,0.05416
3054.39943,0.05371
3052.33982,0.05334
3050.28022,0.05327
3048.22061,0.05333
3046.16100,0.05326
3044.10139,0.05290
3042.04178,0.05219
3039.98217,0.05136
3037.92256,0.05073
3035.86296,0.05033
3033.80335,0.04990
3031.74374,0.04962
3029.68413,0.04962
3027.62452,0.04942
3025.56491,0.04896
3023.50530,0.04845
3021.44570,0.04810
3019.38609,0.04794
3017.32648,0.04795
3015.26687,0.04802
3013.20726,0.04780
3011.14765,0.04742
3009.08804,0.04720
3007.02844,0.04711
3004.96883,0.04706
3002.90922,0.04701
3000.84961,0.04694
2998.79000,0.04690
2996.73039,0.04694
2994.67079,0.04701
2992.61118,0.04714
2990.55157,0.04750
2988.49196,0.04771
2986.43235,0.04774
2984.37274,0.04810
2982.31313,0.04858
2980.25353,0.04871
2978.19392,0.04845
2976.13431,0.04822
2974.07470,0.04832
2972.01509,0.04837
2969.95548,0.04811
2967.89587,0.04792
2965.83627,0.04779
2963.77666,0.04730
2961.71705,0.04659
2959.65744,0.04583
2957.59783,0.04503
2955.53822,0.04453
2953.47861,0.04459
2951.41901,0.04512
2949.35940,0.04592
2947.29979,0.04657
2945.24018,0.04687
2943.18057,0.04723
2941.12096,0.04771
2939.06136,0.04809
2937.00175,0.04828
2934.94214,0.04804
2932.88253,0.04711
2930.82292,0.04581
2928.76331,0.04393
2926.70370,0.04068
2924.64410,0.03583
2922.58449,0.02948
2920.52488,0.02182
2918.46527,0.01434
2916.40566,0.01071
2914.34605,0.01389
2912.28644,0.02195
2910.22684,0.02982
2908.16723,0.03466
2906.10762,0.03717
2904.04801,0.03869
2901.98840,0.03940
2899.92879,0.03971
2897.86918,0.04006
2895.80958,0.04020
2893.74997,0.04026
2891.69036,0.04048
2889.63075,0.04080
2887.57114,0.04136
2885.51153,0.04215
2883.45193,0.04247
2881.39232,0.04224
2879.33271,0.04238
2877.27310,0.04307
2875.21349,0.04369
2873.15388,0.04395
2871.09427,0.04391
2869.03467,0.04363
2866.97506,0.04323
2864.91545,0.04262
2862.85584,0.04172
2860.79623,0.04078
2858.73662,0.03982
2856.67701,0.03808
2854.61741,0.03437
2852.55780,0.02781
2850.49819,0.02031
2848.43858,0.01759
2846.37897,0.02236
2844.31936,0.03005
2842.25975,0.03569
2840.20015,0.03859
2838.14054,0.03967
2836.08093,0.03994
2834.02132,0.04021
2831.96171,0.04059
2829.90210,0.04079
2827.84250,0.04087
2825.78289,0.04096
2823.72328,0.04079
2821.66367,0.04064
2819.60406,0.04078
2817.54445,0.04082
2815.48484,0.04086
2813.42524,0.04106
2811.36563,0.04114
2809.30602,0.04099
2807.24641,0.04065
2805.18680,0.04036
2803.12719,0.04031
2801.06758,0.04024
2799.00798,0.04018
2796.94837,0.04024
2794.88876,0.04036
2792.82915,0.04044
2790.76954,0.04040
2788.70993,0.04027
2786.65032,0.04002
2784.59072,0.03975
2782.53111,0.03955
2780.47150,0.03926
2778.41189,0.03901
2776.35228,0.03914
2774.29267,0.03949
2772.23307,0.03960
2770.17346,0.03957
2768.11385,0.03957
2766.05424,0.03946
2763.99463,0.03923
2761.93502,0.03909
2759.87541,0.03907
2757.81581,0.03908
2755.75620,0.03912
2753.69659,0.03902
2751.63698,0.03876
2749.57737,0.03865
2747.51776,0.03872
2745.45815,0.03868
2743.39855,0.03830
2741.33894,0.03777
2739.27933,0.03762
2737.21972,0.03776
2735.16011,0.03770
2733.10050,0.03745
2731.04089,0.03735
2728.98129,0.03745
2726.92168,0.03761
2724.86207,0.03769
2722.80246,0.03771
2720.74285,0.03756
2718.68324,0.03717
2716.62364,0.03686
2714.56403,0.03676
2712.50442,0.03663
2710.44481,0.03637
2708.38520,0.03634
2706.32559,0.03659
2704.26598,0.03673
2702.20638,0.03666
2700.14677,0.03662
2698.08716,0.03660
2696.02755,0.03637
2693.96794,0.03630
2691.90833,0.03659
2689.84872,0.03663
2687.78912,0.03641
2685.72951,0.03625
2683.66990,0.03587
2681.61029,0.03545
2679.55068,0.03551
2677.49107,0.03580
2675.43146,0.03576
2673.37186,0.03544
2671.31225,0.03533
2669.25264,0.03544
2667.19303,0.03550
2665.13342,0.03562
2663.07381,0.03578
2661.01421,0.03565
2658.95460,0.03530
2656.89499,0.03541
2654.83538,0.03593
2652.77577,0.03610
2650.71616,0.03577
2648.65655,0.03532
2646.59695,0.03508
2644.53734,0.03515
2642.47773,0.03521
2640.41812,0.03503
2638.35851,0.03478
2636.29890,0.03466
2634.23929,0.03451
2632.17969,0.03411
2630.12008,0.03366
2628.06047,0.03346
2626.00086,0.03365
2623.94125,0.03413
2621.88164,0.03451
2619.82203,0.03439
2617.76243,0.03400
2615.70282,0.03401
2613.64321,0.03434
2611.58360,0.03445
2609.52399,0.03426
2607.46438,0.03386
2605.40478,0.03354
2603.34517,0.03352
2601.28556,0.03363
2599.22595,0.03343
2597.16634,0.03292
2595.10673,0.03254
2593.04712,0.03242
2590.98752,0.03277
2588.92791,0.03323
2586.86830,0.03308
2584.80869,0.03285
2582.74908,0.03305
2580.68947,0.03325
2578.62986,0.03320
2576.57026,0.03293
2574.51065,0.03243
2572.45104,0.03193
2570.39143,0.03181
2568.33182,0.03179
2566.27221,0.03135
2564.21260,0.03100
2562.15300,0.03132
2560.09339,0.03184
2558.03378,0.03215
2555.97417,0.03233
2553.91456,0.03220
2551.85495,0.03158
2549.79535,0.03087
2547.73574,0.03057
2545.67613,0.03089
2543.61652,0.03143
2541.55691,0.03169
2539.49730,0.03163
2537.43769,0.03143
2535.37809,0.03106
2533.31848,0.03063
2531.25887,0.03073
2529.19926,0.03112
2527.13965,0.03097
2525.08004,0.03042
2523.02043,0.03036
2520.96083,0.03098
2518.90122,0.03144
2516.84161,0.03127
2514.78200,0.03079
2512.72239,0.03036
2510.66278,0.03020
2508.60317,0.03019
2506.54357,0.03008
2504.48396,0.03014
2502.42435,0.03040
2500.36474,0.03056
2498.30513,0.03078
2496.24552,0.03099
2494.18592,0.03090
2492.12631,0.03055
2490.06670,0.03019
2488.00709,0.02996
2485.94748,0.02976
2483.88787,0.02987
2481.82826,0.03030
2479.76866,0.03043
2477.70905,0.03031
2475.64944,0.03037
2473.58983,0.03025
2471.53022,0.02970
2469.47061,0.02949
2467.41100,0.02980
2465.35140,0.02992
2463.29179,0.02994
2461.23218,0.03023
2459.17257,0.03039
2457.11296,0.03006
2455.05335,0.02974
2452.99374,0.02977
2450.93414,0.02987
2448.87453,0.02982
2446.81492,0.02966
2444.75531,0.02927
2442.69570,0.02881
2440.63609,0.02869
2438.57649,0.02883
2436.51688,0.02910
2434.45727,0.02936
2432.39766,0.02920
2430.33805,0.02889
2428.27844,0.02884
2426.21883,0.02882
2424.15923,0.02872
2422.09962,0.02848
2420.04001,0.02830
2417.98040,0.02836
2415.92079,0.02848
2413.86118,0.02850
2411.80157,0.02830
2409.74197,0.02819
2407.68236,0.02820
2405.62275,0.02797
2403.56314,0.02765
2401.50353,0.02756
2399.44392,0.02768
2397.38431,0.02797
2395.32471,0.02835
2393.26510,0.02831
2391.20549,0.02780
2389.14588,0.02740
2387.08627,0.02725
2385.02666,0.02727
2382.96706,0.02736
2380.90745,0.02742
2378.84784,0.02743
2376.78823,0.02742
2374.72862,0.02763
2372.66901,0.02787
2370.60940,0.02757
2368.54980,0.02669
2366.49019,0.02578
2364.43058,0.02557
2362.37097,0.02606
2360.31136,0.02663
2358.25175,0.02705
2356.19214,0.02752
2354.13254,0.02800
2352.07293,0.02799
2350.01332,0.02754
2347.95371,0.02727
2345.89410,0.02760
2343.83449,0.02786
2341.77488,0.02732
2339.71528,0.02684
2337.65567,0.02690
2335.59606,0.02704
2333.53645,0.02722
2331.47684,0.02747
2329.41723,0.02754
2327.35763,0.02777
2325.29802,0.02847
2323.23841,0.02895
2321.17880,0.02869
2319.11919,0.02801
2317.05958,0.02748
2314.99997,0.02741
2312.94037,0.02752
2310.88076,0.02748
2308.82115,0.02740
2306.76154,0.02747
2304.70193,0.02744
2302.64232,0.02721
2300.58271,0.02709
2298.52311,0.02718
2296.46350,0.02730
2294.40389,0.02733
2292.34428,0.02715
2290.28467,0.02668
2288.22506,0.02625
2286.16545,0.02646
2284.10585,0.02692
2282.04624,0.02691
2279.98663,0.02661
2277.92702,0.02639
2275.86741,0.02618
2273.80780,0.02590
2271.74820,0.02590
2269.68859,0.02643
2267.62898,0.02671
2265.56937,0.02591
2263.50976,0.02494
2261.45015,0.02474
2259.39054,0.02488
2257.33094,0.02493
2255.27133,0.02459
2253.21172,0.02405
2251.15211,0.02400
2249.09250,0.02453
2247.03289,0.02483
2244.97328,0.02452
2242.91368,0.02436
2240.85407,0.02462
2238.79446,0.02491
2236.73485,0.02483
2234.67524,0.02446
2232.61563,0.02442
2230.55602,0.02428
2228.49642,0.02368
2226.43681,0.02309
2224.37720,0.02278
2222.31759,0.02321
2220.25798,0.02419
2218.19837,0.02480
2216.13877,0.02478
2214.07916,0.02428
2212.01955,0.02379
2209.95994,0.02399
2207.90033,0.02441
2205.84072,0.02409
2203.78111,0.02322
2201.72151,0.02304
2199.66190,0.02383
2197.60229,0.02441
2195.54268,0.02404
2193.48307,0.02312
2191.42346,0.02239
2189.36385,0.02205
2187.30425,0.02205
2185.24464,0.02219
2183.18503,0.02213
2181.12542,0.02239
2179.06581,0.02289
2177.00620,0.02256
2174.94659,0.02226
2172.88699,0.02314
2170.82738,0.02436
2168.76777,0.02474
2166.70816,0.02427
2164.64855,0.02364
2162.58894,0.02310
2160.52934,0.02163
2158.46973,0.01849
2156.41012,0.01664
2154.35051,0.01855
2152.29090,0.02179
2150.23129,0.02310
2148.17168,0.02196
2146.11208,0.02032
2144.05247,0.02015
2141.99286,0.02094
2139.93325,0.02130
2137.87364,0.02113
2135.81403,0.02061
2133.75442,0.02018
2131.69482,0.02019
2129.63521,0.02058
2127.57560,0.02146
2125.51599,0.02244
2123.45638,0.02262
2121.39677,0.02229
2119.33716,0.02222
2117.27756,0.02220
2115.21795,0.02196
2113.15834,0.02184
2111.09873,0.02185
2109.03912,0.02195
2106.97951,0.02221
2104.91991,0.02225
2102.86030,0.02199
2100.80069,0.02191
2098.74108,0.02256
2096.68147,0.02307
2094.62186,0.02249
2092.56225,0.02195
2090.50265,0.02189
2088.44304,0.02139
2086.38343,0.02083
2084.32382,0.02119
2082.26421,0.02180
2080.20460,0.02181
2078.14499,0.02140
2076.08539,0.02105
2074.02578,0.02116
2071.96617,0.02134
2069.90656,0.02126
2067.84695,0.02117
2065.78734,0.02103
2063.72773,0.02086
2061.66813,0.02128
2059.60852,0.02189
2057.54891,0.02152
2055.48930,0.02058
2053.42969,0.02029
2051.37008,0.02047
2049.31048,0.02035
2047.25087,0.01966
2045.19126,0.01913
2043.13165,0.01976
2041.07204,0.02064
2039.01243,0.02049
2036.95282,0.02011
2034.89322,0.02041
2032.83361,0.02040
2030.77400,0.01946
2028.71439,0.01852
2026.65478,0.01818
2024.59517,0.01819
2022.53556,0.01779
2020.47596,0.01715
2018.41635,0.01734
2016.35674,0.01813
2014.29713,0.01866
2012.23752,0.01840
2010.17791,0.01789
2008.11830,0.01809
2006.05870,0.01853
2003.99909,0.01875
2001.93948,0.01839
1999.87987,0.01777
1997.82026,0.01771
1995.76065,0.01757
1993.70105,0.01720
1991.64144,0.01716
1989.58183,0.01749
1987.52222,0.01809
1985.46261,0.01873
1983.40300,0.01912
1981.34339,0.01909
1979.28379,0.01870
1977.22418,0.01790
1975.16457,0.01766
1973.10496,0.01819
1971.04535,0.01838
1968.98574,0.01782
1966.92613,0.01696
1964.86653,0.01706
1962.80692,0.01751
1960.74731,0.01674
1958.68770,0.01600
1956.62809,0.01653
1954.56848,0.01717
1952.50887,0.01731
1950.44927,0.01765
1948.38966,0.01798
1946.33005,0.01778
1944.27044,0.01727
1942.21083,0.01678
1940.15122,0.01667
1938.09162,0.01691
1936.03201,0.01729
1933.97240,0.01744
1931.91279,0.01704
1929.85318,0.01666
1927.79357,0.01673
1925.73396,0.01682
1923.67436,0.01684
1921.61475,0.01689
1919.55514,0.01660
1917.49553,0.01630
1915.43592,0.01675
1913.37631,0.01739
1911.31670,0.01709
1909.25710,0.01622
1907.19749,0.01626
1905.13788,0.01689
1903.07827,0.01691
1901.01866,0.01660
1898.95905,0.01658
1896.89944,0.01673
1894.83984,0.01676
1892.78023,0.01679
1890.72062,0.01708
1888.66101,0.01716
1886.60140,0.01673
1884.54179,0.01651
1882.48219,0.01659
1880.42258,0.01628
1878.36297,0.01592
1876.30336,0.01611
1874.24375,0.01626
1872.18414,0.01606
1870.12453,0.01584
1868.06493,0.01554
1866.00532,0.01517
1863.94571,0.01509
1861.88610,0.01524
1859.82649,0.01524
1857.76688,0.01514
1855.70727,0.01515
1853.64767,0.01522
1851.58806,0.01520
1849.52845,0.01503
1847.46884,0.01487
1845.40923,0.01482
1843.34962,0.01469
1841.29002,0.01454
1839.23041,0.01443
1837.17080,0.01414
1835.11119,0.01384
1833.05158,0.01379
1830.99197,0.01400
1828.93236,0.01429
1826.87276,0.01434
1824.81315,0.01417
1822.75354,0.01384
1820.69393,0.01352
1818.63432,0.01339
1816.57471,0.01334
1814.51510,0.01328
1812.45550,0.01322
1810.39589,0.01330
1808.33628,0.01329
1806.27667,0.01319
1804.21706,0.01329
1802.15745,0.01346
1800.09784,0.01325
1798.03824,0.01282
1795.97863,0.01260
1793.91902,0.01253
1791.85941,0.01240
1789.79980,0.01224
1787.74019,0.01217
1785.68059,0.01222
1783.62098,0.01230
1781.56137,0.01230
1779.50176,0.01216
1777.44215,0.01192
1775.38254,0.01183
1773.32293,0.01186
1771.26333,0.01169
1769.20372,0.01141
1767.14411,0.01124
1765.08450,0.01116
1763.02489,0.01110
1760.96528,0.01105
1758.90567,0.01092
1756.84607,0.01079
1754.78646,0.01070
1752.72685,0.01058
1750.66724,0.01050
1748.60763,0.01042
1746.54802,0.01029
1744.48841,0.01022
1742.42881,0.01020
1740.36920,0.01014
1738.30959,0.01012
1736.24998,0.01018
1734.19037,0.01009
1732.13076,0.00983
1730.07116,0.00974
1728.01155,0.00974
1725.95194,0.00964
1723.89233,0.00953
1721.83272,0.00967
1719.77311,0.01010
1717.71350,0.01070
1715.65390,0.01127
1713.59429,0.01204
1711.53468,0.01320
1709.47507,0.01476
1707.41546,0.01714
1705.35585,0.02077
1703.29624,0.02456
1701.23664,0.02804
1699.17703,0.03105
1697.11742,0.03236
1695.05781,0.03253
1692.99820,0.03247
1690.93859,0.03251
1688.87898,0.03286
1686.81938,0.03351
1684.75977,0.03451
1682.70016,0.03588
1680.64055,0.03720
1678.58094,0.03839
1676.52133,0.03965
1674.46173,0.04120
1672.40212,0.04269
1670.34251,0.04420
1668.28290,0.04600
1666.22329,0.04774
1664.16368,0.04950
1662.10407,0.05154
1660.04447,0.05356
1657.98486,0.05537
1655.92525,0.05704
1653.86564,0.05919
1651.80603,0.06176
1649.74642,0.06343
1647.68681,0.06510
1645.62721,0.06724
1643.56760,0.06907
1641.50799,0.07075
1639.44838,0.07259
1637.38877,0.07462
1635.32916,0.07719
1633.26955,0.07975
1631.20995,0.08177
1629.15034,0.08376
1627.09073,0.08584
1625.03112,0.08769
1622.97151,0.08910
1620.91190,0.08988
1618.85230,0.08998
1616.79269,0.08923
1614.73308,0.08779
1612.67347,0.08623
1610.61386,0.08436
1608.55425,0.08189
1606.49464,0.07895
1604.43504,0.07580
1602.37543,0.07255
1600.31582,0.06940
1598.25621,0.06649
1596.19660,0.06379
1594.13699,0.06115
1592.07738,0.05850
1590.01778,0.05582
1587.95817,0.05324
1585.89856,0.05084
1583.83895,0.04864
1581.77934,0.04664
1579.71973,0.04498
1577.66012,0.04393
1575.60052,0.04353
1573.54091,0.04374
1571.48130,0.04456
1569.42169,0.04592
1567.36208,0.04732
1565.30247,0.04872
1563.24287,0.05015
1561.18326,0.05149
1559.12365,0.05320
1557.06404,0.05504
1555.00443,0.05646
1552.94482,0.05769
1550.88521,0.05861
1548.82561,0.05933
1546.76600,0.06002
1544.70639,0.06061
1542.64678,0.06120
1540.58717,0.06247
1538.52756,0.06464
1536.46795,0.06667
1534.40835,0.06894
1532.34874,0.07171
1530.28913,0.07411
1528.22952,0.07615
1526.16991,0.07813
1524.11030,0.07990
1522.05069,0.08181
1519.99109,0.08395
1517.93148,0.08606
1515.87187,0.08838
1513.81226,0.09031
1511.75265,0.09133
1509.69304,0.09164
1507.63344,0.09148
1505.57383,0.09116
1503.51422,0.09075
1501.45461,0.09003
1499.39500,0.08890
1497.33539,0.08735
1495.27578,0.08559
1493.21618,0.08395
1491.15657,0.08212
1489.09696,0.07971
1487.03735,0.07710
1484.97774,0.07460
1482.91813,0.07222
1480.85852,0.06991
1478.79892,0.06776
1476.73931,0.06566
1474.67970,0.06340
1472.62009,0.06134
1470.56048,0.06011
1468.50087,0.05943
1466.44126,0.05860
1464.38166,0.05754
1462.32205,0.05709
1460.26244,0.05751
1458.20283,0.05834
1456.14322,0.05943
1454.08361,0.06067
1452.02401,0.06202
1449.96440,0.06344
1447.90479,0.06480
1445.84518,0.06592
1443.78557,0.06658
1441.72596,0.06680
1439.66635,0.06664
1437.60675,0.06611
1435.54714,0.06509
1433.48753,0.06385
1431.42792,0.06246
1429.36831,0.06093
1427.30870,0.05954
1425.24909,0.05837
1423.18949,0.05744
1421.12988,0.05688
1419.07027,0.05662
1417.01066,0.05643
1414.95105,0.05621
1412.89144,0.05607
1410.83183,0.05610
1408.77223,0.05626
1406.71262,0.05638
1404.65301,0.05627
1402.59340,0.05597
1400.53379,0.05563
1398.47418,0.05528
1396.41458,0.05486
1394.35497,0.05443
1392.29536,0.05408
1390.23575,0.05379
1388.17614,0.05348
1386.11653,0.05316
1384.05692,0.05289
1381.99732,0.05259
1379.93771,0.05228
1377.87810,0.05211
1375.81849,0.05210
1373.75888,0.05209
1371.69927,0.05207
1369.63966,0.05212
1367.58006,0.05211
1365.52045,0.05180
1363.46084,0.05117
1361.40123,0.05034
1359.34162,0.04955
1357.28201,0.04886
1355.22240,0.04820
1353.16280,0.04757
1351.10319,0.04708
1349.04358,0.04678
1346.98397,0.04655
1344.92436,0.04635
1342.86475,0.04632
1340.80515,0.04639
1338.74554,0.04632
1336.68593,0.04613
1334.62632,0.04608
1332.56671,0.04605
1330.50710,0.04587
1328.44749,0.04557
1326.38789,0.04512
1324.32828,0.04456
1322.26867,0.04416
1320.20906,0.04396
1318.14945,0.04372
1316.08984,0.04337
1314.03023,0.04308
1311.97063,0.04290
1309.91102,0.04268
1307.85141,0.04239
1305.79180,0.04218
1303.73219,0.04207
1301.67258,0.04197
1299.61297,0.04171
1297.55337,0.04126
1295.49376,0.04082
1293.43415,0.04059
1291.37454,0.04046
1289.31493,0.04033
1287.25532,0.04028
1285.19572,0.04029
1283.13611,0.04026
1281.07650,0.04025
1279.01689,0.04042
1276.95728,0.04079
1274.89767,0.04137
1272.83806,0.04216
1270.77846,0.04307
1268.71885,0.04401
1266.65924,0.04494
1264.59963,0.04566
1262.54002,0.04616
1260.48041,0.04651
1258.42080,0.04670
1256.36120,0.04681
1254.30159,0.04691
1252.24198,0.04691
1250.18237,0.04692
1248.12276,0.04713
1246.06315,0.04745
1244.00354,0.04789
1241.94394,0.04849
1239.88433,0.04916
1237.82472,0.04996
1235.76511,0.05091
1233.70550,0.05188
1231.64589,0.05280
1229.58629,0.05356
1227.52668,0.05403
1225.46707,0.05420
1223.40746,0.05418
1221.34785,0.05402
1219.28824,0.05372
1217.22863,0.05331
1215.16903,0.05278
1213.10942,0.05209
1211.04981,0.05117
1208.99020,0.05014
1206.93059,0.04911
1204.87098,0.04797
1202.81137,0.04680
1200.75177,0.04574
1198.69216,0.04471
1196.63255,0.04366
1194.57294,0.04269
1192.51333,0.04180
1190.45372,0.04099
1188.39411,0.04031
1186.33451,0.03983
1184.27490,0.03951
1182.21529,0.03925
1180.15568,0.03914
1178.09607,0.03932
1176.03646,0.03973
1173.97686,0.04024
1171.91725,0.04076
1169.85764,0.04118
1167.79803,0.04147
1165.73842,0.04176
1163.67881,0.04209
1161.61920,0.04228
1159.55960,0.04219
1157.49999,0.04190
1155.44038,0.04153
1153.38077,0.04112
1151.32116,0.04067
1149.26155,0.04003
1147.20194,0.03919
1145.14234,0.03842
1143.08273,0.03781
1141.02312,0.03731
1138.96351,0.03682
1136.90390,0.03630
1134.84429,0.03579
1132.78468,0.03537
1130.72508,0.03499
1128.66547,0.03468
1126.60586,0.03440
1124.54625,0.03402
1122.48664,0.03366
1120.42703,0.03347
1118.36743,0.03334
1116.30782,0.03317
1114.24821,0.03288
1112.18860,0.03256
1110.12899,0.03240
1108.06938,0.03246
1106.00977,0.03261
1103.95017,0.03264
1101.89056,0.03247
1099.83095,0.03213
1097.77134,0.03173
1095.71173,0.03139
1093.65212,0.03116
1091.59251,0.03107
1089.53291,0.03118
1087.47330,0.03148
1085.41369,0.03189
1083.35408,0.03237
1081.29447,0.03291
1079.23486,0.03343
1077.17525,0.03392
1075.11565,0.03447
1073.05604,0.03502
1070.99643,0.03543
1068.93682,0.03579
1066.87721,0.03620
1064.81760,0.03646
1062.75800,0.03639
1060.69839,0.03619
1058.63878,0.03604
1056.57917,0.03584
1054.51956,0.03557
1052.45995,0.03537
1050.40034,0.03517
1048.34074,0.03486
1046.28113,0.03465
1044.22152,0.03455
1042.16191,0.03441
1040.10230,0.03427
1038.04269,0.03414
1035.98308,0.03392
1033.92348,0.03360
1031.86387,0.03326
1029.80426,0.03296
1027.74465,0.03264
1025.68504,0.03223
1023.62543,0.03176
1021.56582,0.03146
1019.50622,0.03137
1017.44661,0.03140
1015.38700,0.03145
1013.32739,0.03138
1011.26778,0.03132
1009.20817,0.03133
1007.14857,0.03129
1005.08896,0.03128
1003.02935,0.03138
1000.96974,0.03158
998.91013,0.03184
996.85052,0.03200
994.79091,0.03197
992.73131,0.03173
990.67170,0.03121
988.61209,0.03053
986.55248,0.03004
984.49287,0.02981
982.43326,0.02972
980.37365,0.02979
978.31405,0.03004
976.25444,0.03035
974.19483,0.03049
972.13522,0.03036
970.07561,0.02999
968.01600,0.02954
965.95639,0.02909
963.89679,0.02863
961.83718,0.02818
959.77757,0.02773
957.71796,0.02726
955.65835,0.02686
953.59874,0.02660
951.53914,0.02639
949.47953,0.02618
947.41992,0.02601
945.36031,0.02575
943.30070,0.02537
941.24109,0.02512
939.18148,0.02502
937.12188,0.02498
935.06227,0.02492
933.00266,0.02477
930.94305,0.02458
928.88344,0.02446
926.82383,0.02431
924.76422,0.02412
922.70462,0.02395
920.64501,0.02371
918.58540,0.02336
916.52579,0.02304
914.46618,0.02278
912.40657,0.02260
910.34696,0.02260
908.28736,0.02262
906.22775,0.02237
904.16814,0.02205
902.10853,0.02192
900.04892,0.02192
897.98931,0.02181
895.92971,0.02158
893.87010,0.02132
891.81049,0.02108
889.75088,0.02096
887.69127,0.02100
885.63166,0.02104
883.57205,0.02099
881.51245,0.02097
879.45284,0.02100
877.39323,0.02093
875.33362,0.02079
873.27401,0.02070
871.21440,0.02050
869.15479,0.02012
867.09519,0.01984
865.03558,0.01972
862.97597,0.01964
860.91636,0.01967
858.85675,0.01974
856.79714,0.01973
854.73753,0.01978
852.67793,0.01993
850.61832,0.02001
848.55871,0.01992
846.49910,0.01970
844.43949,0.01951
842.37988,0.01952
840.32028,0.01955
838.26067,0.01950
836.20106,0.01953
834.14145,0.01962
832.08184,0.01962
830.02223,0.01959
827.96262,0.01964
825.90302,0.01970
823.84341,0.01967
821.78380,0.01955
819.72419,0.01939
817.66458,0.01925
815.60497,0.01920
813.54536,0.01916
811.48576,0.01904
809.42615,0.01893
807.36654,0.01891
805.30693,0.01895
803.24732,0.01891
801.18771,0.01870
799.12810,0.01845
797.06850,0.01831
795.00889,0.01828
792.94928,0.01824
790.88967,0.01821
788.83006,0.01824
786.77045,0.01828
784.71085,0.01832
782.65124,0.01839
780.59163,0.01844
778.53202,0.01847
776.47241,0.01857
774.41280,0.01868
772.35319,0.01868
770.29359,0.01874
768.23398,0.01898
766.17437,0.01920
764.11476,0.01933
762.05515,0.01931
759.99554,0.01917
757.93593,0.01913
755.87633,0.01925
753.81672,0.01947
751.75711,0.01969
749.69750,0.01984
747.63789,0.02008
745.57828,0.02036
743.51867,0.02053
741.45907,0.02065
739.39946,0.02081
737.33985,0.02107
735.28024,0.02151
733.22063,0.02191
731.16102,0.02211
729.10142,0.02236
727.04181,0.02274
724.98220,0.02311
722.92259,0.02338
720.86298,0.02357
718.80337,0.02388
716.74376,0.02434
714.68416,0.02473
712.62455,0.02500
710.56494,0.02523
708.50533,0.02552
706.44572,0.02600
704.38611,0.02646
702.32650,0.02666
700.26690,0.02679
698.20729,0.02706
696.14768,0.02734
694.08807,0.02746
692.02846,0.02744
689.96885,0.02738
687.90924,0.02740
685.84964,0.02755
683.79003,0.02772
681.73042,0.02778
679.67081,0.02772
677.61120,0.02764
675.55159,0.02770
673.49199,0.02776
671.43238,0.02766
669.37277,0.02750
667.31316,0.02760
665.25355,0.02785
663.19394,0.02782
661.13433,0.02762
659.07473,0.02753
657.01512,0.02768
654.95551,0.02782
652.89590,0.02777
650.83629,0.02768
648.77668,0.02769
646.71707,0.02784
644.65747,0.02817
642.59786,0.02848
640.53825,0.02850
638.47864,0.02833
636.41903,0.02826
634.35942,0.02842
632.29981,0.02879
630.24021,0.02911
628.18060,0.02915
626.12099,0.02899
624.06138,0.02890
622.00177,0.02901
619.94216,0.02910
617.88256,0.02907
615.82295,0.02894
613.76334,0.02870
611.70373,0.02861
609.64412,0.02863
607.58451,0.02855
605.52490,0.02834
603.46530,0.02802
601.40569,0.02771
599.34608,0.02746
597.28647,0.02712
595.22686,0.02681
593.16725,0.02670
591.10764,0.02663
589.04804,0.02650
586.98843,0.02624
584.92882,0.02594
582.86921,0.02578
580.80960,0.02566
578.74999,0.02553
576.69039,0.02546
574.63078,0.02547
572.57117,0.02532
570.51156,0.02507
568.45195,0.02507
566.39234,0.02516
564.33273,0.02527
562.27313,0.02556
560.21352,0.02595
558.15391,0.02660
556.09430,0.02733
554.03469,0.02775
551.97508,0.02812
549.91547,0.02855
547.85587,0.02879
545.79626,0.02878
543.73665,0.02864
541.67704,0.02837
539.61743,0.02794
537.55782,0.02750
535.49821,0.02737
533.43861,0.02725
531.37900,0.02689
529.31939,0.02663
527.25978,0.02661
525.20017,0.02656
523.14056,0.02619
521.08096,0.02570
519.02135,0.02535
516.96174,0.02523
514.90213,0.02517
512.84252,0.02496
510.78291,0.02452
508.72330,0.02413
506.66370,0.02407
504.60409,0.02413
502.54448,0.02407
500.48487,0.02381
498.42526,0.02354
496.36565,0.02361
494.30604,0.02383
492.24644,0.02385
490.18683,0.02372
488.12722,0.02348
486.06761,0.02307
484.00800,0.02275
481.94839,0.02261
479.88878,0.02238
477.82918,0.02195
475.76957,0.02139
473.70996,0.02096
471.65035,0.02084
469.59074,0.02093
467.53113,0.02092
465.47153,0.02070
463.41192,0.02049
461.35231,0.02055
459.29270,0.02062
457.23309,0.02041
455.17348,0.02028
453.11387,0.02024
451.05427,0.01999
448.99466,0.01958
446.93505,0.01930
444.87544,0.01938
442.81583,0.01968
440.75622,0.01964
438.69661,0.01915
436.63701,0.01886
434.57740,0.01920
432.51779,0.01969
430.45818,0.02012
428.39857,0.02047
426.33896,0.02038
424.27935,0.01999
422.21975,0.01984
420.16014,0.01991
418.10053,0.01966
416.04092,0.01917
413.98131,0.01877
411.92170,0.01837
409.86210,0.01802
407.80249,0.01763
405.74288,0.01718
403.68327,0.01705
401.62366,0.01706
399.56405,0.01655
