3997.70013,0.04955
3995.64052,0.04900
3993.58092,0.04823
3991.52131,0.04832
3989.46170,0.04871
3987.40209,0.04832
3985.34248,0.04785
3983.28287,0.04776
3981.22327,0.04782
3979.16366,0.04826
3977.10405,0.04871
3975.04444,0.04851
3972.98483,0.04842
3970.92522,0.04892
3968.86561,0.04904
3966.80601,0.04875
3964.74640,0.04879
3962.68679,0.04899
3960.62718,0.04905
3958.56757,0.04913
3956.50796,0.04914
3954.44835,0.04880
3952.38875,0.04825
3950.32914,0.04809
3948.26953,0.04867
3946.20992,0.04917
3944.15031,0.04880
3942.09070,0.04850
3940.03109,0.04864
3937.97149,0.04825
3935.91188,0.04775
3933.85227,0.04789
3931.79266,0.04816
3929.73305,0.04827
3927.67344,0.04838
3925.61384,0.04823
3923.55423,0.04795
3921.49462,0.04804
3919.43501,0.04825
3917.37540,0.04851
3915.31579,0.04855
3913.25618,0.04801
3911.19658,0.04731
3909.13697,0.04705
3907.07736,0.04695
3905.01775,0.04654
3902.95814,0.04628
3900.89853,0.04603
3898.83892,0.04525
3896.77932,0.04515
3894.71971,0.04627
3892.66010,0.04758
3890.60049,0.04840
3888.54088,0.04872
3886.48127,0.04857
3884.42166,0.04795
3882.36206,0.04720
3880.30245,0.04699
3878.24284,0.04736
3876.18323,0.04790
3874.12362,0.04813
3872.06401,0.04750
3870.00441,0.04661
3867.94480,0.04616
3865.88519,0.04544
3863.82558,0.04490
3861.76597,0.04508
3859.70636,0.04517
3857.64675,0.04517
3855.58715,0.04559
3853.52754,0.04650
3851.46793,0.04628
3849.40832,0.04514
3847.34871,0.04459
3845.28910,0.04483
3843.22949,0.04530
3841.16989,0.04533
3839.11028,0.04476
3837.05067,0.04391
3834.99106,0.04359
3832.93145,0.04392
3830.87184,0.04434
3828.81223,0.04455
3826.75263,0.04454
3824.69302,0.04499
3822.63341,0.04593
3820.57380,0.04592
3818.51419,0.04535
3816.45458,0.04540
3814.39498,0.04502
3812.33537,0.04420
3810.27576,0.04390
3808.21615,0.04413
3806.15654,0.04441
3804.09693,0.04485
3802.03732,0.04532
3799.97772,0.04517
3797.91811,0.04514
3795.85850,0.04558
3793.79889,0.04563
3791.73928,0.04494
3789.67967,0.04386
3787.62006,0.04354
3785.56046,0.04455
3783.50085,0.04536
3781.44124,0.04501
3779.38163,0.04428
3777.32202,0.04371
3775.26241,0.04366
3773.20280,0.04394
3771.14320,0.04395
3769.08359,0.04382
3767.02398,0.04365
3764.96437,0.04305
3762.90476,0.04258
3760.84515,0.04280
3758.78555,0.04344
3756.72594,0.04400
3754.66633,0.04409
3752.60672,0.04359
3750.54711,0.04301
3748.48750,0.04312
3746.42789,0.04311
3744.36829,0.04235
3742.30868,0.04218
3740.24907,0.04273
3738.18946,0.04294
3736.12985,0.04274
3734.07024,0.04297
3732.01063,0.04339
3729.95103,0.04332
3727.89142,0.04285
3725.83181,0.04230
3723.77220,0.04179
3721.71259,0.04140
3719.65298,0.04108
3717.59337,0.04073
3715.53377,0.04082
3713.47416,0.04111
3711.41455,0.04108
3709.35494,0.04113
3707.29533,0.04141
3705.23572,0.04153
3703.17612,0.04160
3701.11651,0.04179
3699.05690,0.04172
3696.99729,0.04146
3694.93768,0.04117
3692.87807,0.04085
3690.81846,0.04076
3688.75886,0.04076
3686.69925,0.04044
3684.63964,0.03993
3682.58003,0.03983
3680.52042,0.04037
3678.46081,0.04082
3676.40120,0.04058
3674.34160,0.04018
3672.28199,0.04022
3670.22238,0.04042
3668.16277,0.04057
3666.10316,0.04057
3664.04355,0.04040
3661.98394,0.04043
3659.92434,0.04099
3657.86473,0.04149
3655.80512,0.04112
3653.74551,0.04063
3651.68590,0.04117
3649.62629,0.04235
3647.56669,0.04269
3645.50708,0.04222
3643.44747,0.04164
3641.38786,0.04119
3639.32825,0.04120
3637.26864,0.04162
3635.20903,0.04209
3633.14943,0.04228
3631.08982,0.04208
3629.03021,0.04236
3626.97060,0.04315
3624.91099,0.04303
3622.85138,0.04242
3620.79177,0.04215
3618.73217,0.04205
3616.67256,0.04198
3614.61295,0.04203
3612.55334,0.04244
3610.49373,0.04340
3608.43412,0.04403
3606.37451,0.04382
3604.31491,0.04365
3602.25530,0.04410
3600.19569,0.04456
3598.13608,0.04454
3596.07647,0.04452
3594.01686,0.04473
3591.95726,0.04506
3589.89765,0.04552
3587.83804,0.04598
3585.77843,0.04599
3583.71882,0.04589
3581.65921,0.04585
3579.59960,0.04554
3577.54000,0.04582
3575.48039,0.04699
3573.42078,0.04766
3571.36117,0.04735
3569.30156,0.04689
3567.24195,0.04698
3565.18234,0.04766
3563.12274,0.04810
3561.06313,0.04811
3559.00352,0.04808
3556.94391,0.04819
3554.88430,0.04854
3552.82469,0.04904
3550.76508,0.04939
3548.70548,0.04957
3546.64587,0.04973
3544.58626,0.04963
3542.52665,0.04941
3540.46704,0.04978
3538.40743,0.05037
3536.34783,0.05032
3534.28822,0.04994
3532.22861,0.04998
3530.16900,0.05052
3528.10939,0.05114
3526.04978,0.05142
3523.99017,0.05152
3521.93057,0.05166
3519.87096,0.05160
3517.81135,0.05137
3515.75174,0.05145
3513.69213,0.05180
3511.63252,0.05194
3509.57291,0.05211
3507.51331,0.05249
3505.45370,0.05295
3503.39409,0.05346
3501.33448,0.05375
3499.27487,0.05365
3497.21526,0.05353
3495.15565,0.05350
3493.09605,0.05338
3491.03644,0.05375
3488.97683,0.05451
3486.91722,0.05479
3484.85761,0.05488
3482.79800,0.05498
3480.73840,0.05461
3478.67879,0.05439
3476.61918,0.05506
3474.55957,0.05566
3472.49996,0.05563
3470.44035,0.05542
3468.38074,0.05504
3466.32114,0.05463
3464.26153,0.05477
3462.20192,0.05545
3460.14231,0.05590
3458.08270,0.05593
3456.02309,0.05594
3453.96348,0.05605
3451.90388,0.05635
3449.84427,0.05695
3447.78466,0.05715
3445.72505,0.05694
3443.66544,0.05713
3441.60583,0.05757
3439.54622,0.05795
3437.48662,0.05818
3435.42701,0.05814
3433.36740,0.05818
3431.30779,0.05851
3429.24818,0.05861
3427.18857,0.05803
3425.12897,0.05745
3423.06936,0.05760
3421.00975,0.05830
3418.95014,0.05904
3416.89053,0.05923
3414.83092,0.05894
3412.77131,0.05925
3410.71171,0.06017
3408.65210,0.06068
3406.59249,0.06051
3404.53288,0.06039
3402.47327,0.06101
3400.41366,0.06160
3398.35405,0.06151
3396.29445,0.06138
3394.23484,0.06171
3392.17523,0.06224
3390.11562,0.06235
3388.05601,0.06215
3385.99640,0.06242
3383.93679,0.06308
3381.87719,0.06353
3379.81758,0.06377
3377.75797,0.06396
3375.69836,0.06417
3373.63875,0.06453
3371.57914,0.06482
3369.51954,0.06506
3367.45993,0.06537
3365.40032,0.06573
3363.34071,0.06598
3361.28110,0.06616
3359.22149,0.06689
3357.16188,0.06800
3355.10228,0.06872
3353.04267,0.06916
3350.98306,0.06985
3348.92345,0.07079
3346.86384,0.07158
3344.80423,0.07240
3342.74462,0.07344
3340.68502,0.07420
3338.62541,0.07472
3336.56580,0.07597
3334.50619,0.07800
3332.44658,0.07983
3330.38697,0.08122
3328.32736,0.08265
3326.26776,0.08429
3324.20815,0.08615
3322.14854,0.08804
3320.08893,0.08979
3318.02932,0.09183
3315.96971,0.09419
3313.91011,0.09621
3311.85050,0.09807
3309.79089,0.10040
3307.73128,0.10308
3305.67167,0.10600
3303.61206,0.10902
3301.55245,0.11192
3299.49285,0.11493
3297.43324,0.11798
3295.37363,0.12069
3293.31402,0.12296
3291.25441,0.12508
3289.19480,0.12742
3287.13519,0.13015
3285.07559,0.13295
3283.01598,0.13501
3280.95637,0.13590
3278.89676,0.13617
3276.83715,0.13674
3274.77754,0.13729
3272.71793,0.13715
3270.65833,0.13659
3268.59872,0.13585
3266.53911,0.13489
3264.47950,0.13385
3262.41989,0.13265
3260.36028,0.13134
3258.30068,0.12981
3256.24107,0.12783
3254.18146,0.12594
3252.12185,0.12441
3250.06224,0.12296
3248.00263,0.12135
3245.94302,0.11927
3243.88342,0.11729
3241.82381,0.11587
3239.76420,0.11460
3237.70459,0.11336
3235.64498,0.11210
3233.58537,0.11069
3231.52576,0.10959
3229.46616,0.10889
3227.40655,0.10783
3225.34694,0.10637
3223.28733,0.10507
3221.22772,0.10380
3219.16811,0.10260
3217.10850,0.10177
3215.04890,0.10116
3212.98929,0.10038
3210.92968,0.09923
3208.87007,0.09805
3206.81046,0.09708
3204.75085,0.09616
3202.69125,0.09534
3200.63164,0.09469
3198.57203,0.09402
3196.51242,0.09333
3194.45281,0.09223
3192.39320,0.09070
3190.33359,0.08974
3188.27399,0.08951
3186.21438,0.08917
3184.15477,0.08836
3182.09516,0.08742
3180.03555,0.08662
3177.97594,0.08587
3175.91633,0.08522
3173.85673,0.08465
3171.79712,0.08400
3169.73751,0.08320
3167.67790,0.08225
3165.61829,0.08128
3163.55868,0.08069
3161.49907,0.08051
3159.43947,0.08030
3157.37986,0.07967
3155.32025,0.07898
3153.26064,0.07862
3151.20103,0.07829
3149.14142,0.07758
3147.08182,0.07667
3145.02221,0.07594
3142.96260,0.07530
3140.90299,0.07488
3138.84338,0.07481
3136.78377,0.07445
3134.72416,0.07368
3132.66456,0.07316
3130.60495,0.07300
3128.54534,0.07271
3126.48573,0.07239
3124.42612,0.07253
3122.36651,0.07286
3120.30690,0.07285
3118.24730,0.07237
3116.18769,0.07205
3114.12808,0.07233
3112.06847,0.07268
3110.00886,0.07286
3107.94925,0.07294
3105.88965,0.07263
3103.83004,0.07220
3101.77043,0.07230
3099.71082,0.07266
3097.65121,0.07306
3095.59160,0.07353
3093.53199,0.07364
3091.47239,0.07360
3089.41278,0.07385
3087.35317,0.07395
3085.29356,0.07389
3083.23395,0.07410
3081.17434,0.07434
3079.11473,0.07442
3077.05513,0.07443
3074.99552,0.07476
3072.93591,0.07556
3070.87630,0.07607
3068.81669,0.07582
3066.75708,0.07531
3064.69747,0.07496
3062.63787,0.07471
3060.57826,0.07448
3058.51865,0.07418
3056.45904,0.07375
3054.39943,0.07328
3052.33982,0.07289
3050.28022,0.07249
3048.22061,0.07220
3046.16100,0.07201
3044.10139,0.07138
3042.04178,0.07033
3039.98217,0.06938
3037.92256,0.06862
3035.86296,0.06820
3033.80335,0.06806
3031.74374,0.06794
3029.68413,0.06758
3027.62452,0.06700
3025.56491,0.06677
3023.50530,0.06691
3021.44570,0.06661
3019.38609,0.06568
3017.32648,0.06506
3015.26687,0.06518
3013.20726,0.06546
3011.14765,0.06554
3009.08804,0.06538
3007.02844,0.06503
3004.96883,0.06476
3002.90922,0.06460
3000.84961,0.06452
2998.79000,0.06465
2996.73039,0.06512
2994.67079,0.06570
2992.61118,0.06586
2990.55157,0.06585
2988.49196,0.06619
2986.43235,0.06647
2984.37274,0.06646
2982.31313,0.06651
2980.25353,0.06689
2978.19392,0.06730
2976.13431,0.06737
2974.07470,0.06748
2972.01509,0.06779
2969.95548,0.06814
2967.89587,0.06861
2965.83627,0.06888
2963.77666,0.06867
2961.71705,0.06819
2959.65744,0.06769
2957.59783,0.06725
2955.53822,0.06714
2953.47861,0.06736
2951.41901,0.06746
2949.35940,0.06768
2947.29979,0.06813
2945.24018,0.06839
2943.18057,0.06843
2941.12096,0.06849
2939.06136,0.06884
2937.00175,0.06963
2934.94214,0.07059
2932.88253,0.07145
2930.82292,0.07220
2928.76331,0.07296
2926.70370,0.07360
2924.64410,0.07373
2922.58449,0.07357
2920.52488,0.07369
2918.46527,0.07393
2916.40566,0.07374
2914.34605,0.07292
2912.28644,0.07168
2910.22684,0.07041
2908.16723,0.06940
2906.10762,0.06873
2904.04801,0.06816
2901.98840,0.06743
2899.92879,0.06648
2897.86918,0.06558
2895.80958,0.06502
2893.74997,0.06474
2891.69036,0.06456
2889.63075,0.06445
2887.57114,0.06444
2885.51153,0.06432
2883.45193,0.06405
2881.39232,0.06412
2879.33271,0.06460
2877.27310,0.06487
2875.21349,0.06502
2873.15388,0.06522
2871.09427,0.06510
2869.03467,0.06476
2866.97506,0.06443
2864.91545,0.06410
2862.85584,0.06382
2860.79623,0.06338
2858.73662,0.06292
2856.67701,0.06300
2854.61741,0.06365
2852.55780,0.06445
2850.49819,0.06503
2848.43858,0.06480
2846.37897,0.06356
2844.31936,0.06220
2842.25975,0.06154
2840.20015,0.06106
2838.14054,0.06022
2836.08093,0.05947
2834.02132,0.05932
2831.96171,0.05920
2829.90210,0.05875
2827.84250,0.05849
2825.78289,0.05847
2823.72328,0.05828
2821.66367,0.05791
2819.60406,0.05754
2817.54445,0.05733
2815.48484,0.05738
2813.42524,0.05745
2811.36563,0.05725
2809.30602,0.05695
2807.24641,0.05675
2805.18680,0.05669
2803.12719,0.05680
2801.06758,0.05693
2799.00798,0.05687
2796.94837,0.05675
2794.88876,0.05663
2792.82915,0.05624
2790.76954,0.05584
2788.70993,0.05604
2786.65032,0.05640
2784.59072,0.05625
2782.53111,0.05592
2780.47150,0.05566
2778.41189,0.05554
2776.35228,0.05562
2774.29267,0.05555
2772.23307,0.05529
2770.17346,0.05506
2768.11385,0.05486
2766.05424,0.05473
2763.99463,0.05476
2761.93502,0.05473
2759.87541,0.05462
2757.81581,0.05451
2755.75620,0.05428
2753.69659,0.05403
2751.63698,0.05380
2749.57737,0.05350
2747.51776,0.05342
2745.45815,0.05346
2743.39855,0.05347
2741.33894,0.05353
2739.27933,0.05337
2737.21972,0.05296
2735.16011,0.05271
2733.10050,0.05272
2731.04089,0.05273
2728.98129,0.05260
2726.92168,0.05250
2724.86207,0.05234
2722.80246,0.05206
2720.74285,0.05185
2718.68324,0.05178
2716.62364,0.05176
2714.56403,0.05171
2712.50442,0.05151
2710.44481,0.05138
2708.38520,0.05135
2706.32559,0.05122
2704.26598,0.05122
2702.20638,0.05129
2700.14677,0.05113
2698.08716,0.05092
2696.02755,0.05083
2693.96794,0.05071
2691.90833,0.05046
2689.84872,0.05033
2687.78912,0.05038
2685.72951,0.05046
2683.66990,0.05046
2681.61029,0.05028
2679.55068,0.04990
2677.49107,0.04951
2675.43146,0.04949
2673.37186,0.04981
2671.31225,0.04995
2669.25264,0.04973
2667.19303,0.04959
2665.13342,0.04979
2663.07381,0.05001
2661.01421,0.05008
2658.95460,0.05007
2656.89499,0.04994
2654.83538,0.04969
2652.77577,0.04958
2650.71616,0.04968
2648.65655,0.04975
2646.59695,0.04933
2644.53734,0.04857
2642.47773,0.04825
2640.41812,0.04838
2638.35851,0.04847
2636.29890,0.04836
2634.23929,0.04821
2632.17969,0.04835
2630.12008,0.04862
2628.06047,0.04849
2626.00086,0.04812
2623.94125,0.04788
2621.88164,0.04776
2619.82203,0.04740
2617.76243,0.04698
2615.70282,0.04705
2613.64321,0.04715
2611.58360,0.04686
2609.52399,0.04658
2607.46438,0.04654
2605.40478,0.04653
2603.34517,0.04644
2601.28556,0.04641
2599.22595,0.04656
2597.16634,0.04665
2595.10673,0.04614
2593.04712,0.04540
2590.98752,0.04541
2588.92791,0.04585
2586.86830,0.04588
2584.80869,0.04559
2582.74908,0.04509
2580.68947,0.04462
2578.62986,0.04459
2576.57026,0.04474
2574.51065,0.04486
2572.45104,0.04473
2570.39143,0.04413
2568.33182,0.04362
2566.27221,0.04381
2564.21260,0.04452
2562.15300,0.04489
2560.09339,0.04442
2558.03378,0.04383
2555.97417,0.04382
2553.91456,0.04384
2551.85495,0.04337
2549.79535,0.04286
2547.73574,0.04309
2545.67613,0.04370
2543.61652,0.04376
2541.55691,0.04308
2539.49730,0.04240
2537.43769,0.04228
2535.37809,0.04229
2533.31848,0.04208
2531.25887,0.04180
2529.19926,0.04160
2527.13965,0.04179
2525.08004,0.04254
2523.02043,0.04299
2520.96083,0.04253
2518.90122,0.04183
2516.84161,0.04140
2514.78200,0.04119
2512.72239,0.04110
2510.66278,0.04113
2508.60317,0.04141
2506.54357,0.04181
2504.48396,0.04204
2502.42435,0.04187
2500.36474,0.04170
2498.30513,0.04201
2496.24552,0.04241
2494.18592,0.04242
2492.12631,0.04185
2490.06670,0.04097
2488.00709,0.04060
2485.94748,0.04074
2483.88787,0.04086
2481.82826,0.04073
2479.76866,0.04054
2477.70905,0.04061
2475.64944,0.04066
2473.58983,0.04049
2471.53022,0.04044
2469.47061,0.04031
2467.41100,0.03990
2465.35140,0.03990
2463.29179,0.04056
2461.23218,0.04096
2459.17257,0.04087
2457.11296,0.04094
2455.05335,0.04088
2452.99374,0.04033
2450.93414,0.03993
2448.87453,0.04004
2446.81492,0.04027
2444.75531,0.04025
2442.69570,0.04005
2440.63609,0.03997
2438.57649,0.03997
2436.51688,0.03986
2434.45727,0.03976
2432.39766,0.03973
2430.33805,0.03974
2428.27844,0.03971
2426.21883,0.03953
2424.15923,0.03919
2422.09962,0.03861
2420.04001,0.03817
2417.98040,0.03849
2415.92079,0.03911
2413.86118,0.03898
2411.80157,0.03862
2409.74197,0.03884
2407.68236,0.03912
2405.62275,0.03922
2403.56314,0.03919
2401.50353,0.03899
2399.44392,0.03898
2397.38431,0.03922
2395.32471,0.03930
2393.26510,0.03912
2391.20549,0.03881
2389.14588,0.03844
2387.08627,0.03834
2385.02666,0.03859
2382.96706,0.03875
2380.90745,0.03868
2378.84784,0.03849
2376.78823,0.03823
2374.72862,0.03812
2372.66901,0.03833
2370.60940,0.03876
2368.54980,0.03934
2366.49019,0.03976
2364.43058,0.03959
2362.37097,0.03897
2360.31136,0.03847
2358.25175,0.03842
2356.19214,0.03845
2354.13254,0.03837
2352.07293,0.03846
2350.01332,0.03851
2347.95371,0.03832
2345.89410,0.03799
2343.83449,0.03787
2341.77488,0.03822
2339.71528,0.03845
2337.65567,0.03822
2335.59606,0.03817
2333.53645,0.03847
2331.47684,0.03855
2329.41723,0.03856
2327.35763,0.03913
2325.29802,0.03977
2323.23841,0.03962
2321.17880,0.03919
2319.11919,0.03926
2317.05958,0.03950
2314.99997,0.03950
2312.94037,0.03920
2310.88076,0.03853
2308.82115,0.03780
2306.76154,0.03749
2304.70193,0.03751
2302.64232,0.03753
2300.58271,0.03739
2298.52311,0.03725
2296.46350,0.03722
2294.40389,0.03707
2292.34428,0.03674
2290.28467,0.03642
2288.22506,0.03635
2286.16545,0.03660
2284.10585,0.03692
2282.04624,0.03694
2279.98663,0.03652
2277.92702,0.03568
2275.86741,0.03496
2273.80780,0.03484
2271.74820,0.03508
2269.68859,0.03487
2267.62898,0.03406
2265.56937,0.03357
2263.50976,0.03343
2261.45015,0.03324
2259.39054,0.03341
2257.33094,0.03360
2255.27133,0.03336
2253.21172,0.03321
2251.15211,0.03311
2249.09250,0.03289
2247.03289,0.03250
2244.97328,0.03200
2242.91368,0.03199
2240.85407,0.03190
2238.79446,0.03123
2236.73485,0.03094
2234.67524,0.03133
2232.61563,0.03174
2230.55602,0.03168
2228.49642,0.03094
2226.43681,0.03022
2224.37720,0.03050
2222.31759,0.03097
2220.25798,0.03085
2218.19837,0.03085
2216.13877,0.03069
2214.07916,0.03014
2212.01955,0.03016
2209.95994,0.03062
2207.90033,0.03064
2205.84072,0.03025
2203.78111,0.03016
2201.72151,0.03036
2199.66190,0.02975
2197.60229,0.02774
2195.54268,0.02617
2193.48307,0.02658
2191.42346,0.02716
2189.36385,0.02682
2187.30425,0.02722
2185.24464,0.02843
2183.18503,0.02831
2181.12542,0.02703
2179.06581,0.02684
2177.00620,0.02692
2174.94659,0.02642
2172.88699,0.02712
2170.82738,0.02821
2168.76777,0.02791
2166.70816,0.02696
2164.64855,0.02653
2162.58894,0.02682
2160.52934,0.02612
2158.46973,0.02364
2156.41012,0.02170
2154.35051,0.02184
2152.29090,0.02374
2150.23129,0.02542
2148.17168,0.02568
2146.11208,0.02618
2144.05247,0.02754
2141.99286,0.02775
2139.93325,0.02658
2137.87364,0.02593
2135.81403,0.02580
2133.75442,0.02563
2131.69482,0.02619
2129.63521,0.02726
2127.57560,0.02819
2125.51599,0.02899
2123.45638,0.02954
2121.39677,0.02978
2119.33716,0.02994
2117.27756,0.02981
2115.21795,0.02936
2113.15834,0.02945
2111.09873,0.02977
2109.03912,0.02948
2106.97951,0.02882
2104.91991,0.02801
2102.86030,0.02727
2100.80069,0.02711
2098.74108,0.02752
2096.68147,0.02800
2094.62186,0.02817
2092.56225,0.02797
2090.50265,0.02808
2088.44304,0.02885
2086.38343,0.02918
2084.32382,0.02837
2082.26421,0.02760
2080.20460,0.02773
2078.14499,0.02821
2076.08539,0.02834
2074.02578,0.02795
2071.96617,0.02744
2069.90656,0.02703
2067.84695,0.02661
2065.78734,0.02621
2063.72773,0.02610
2061.66813,0.02657
2059.60852,0.02688
2057.54891,0.02661
2055.48930,0.02625
2053.42969,0.02617
2051.37008,0.02603
2049.31048,0.02489
2047.25087,0.02377
2045.19126,0.02359
2043.13165,0.02352
2041.07204,0.02351
2039.01243,0.02340
2036.95282,0.02295
2034.89322,0.02225
2032.83361,0.02143
2030.77400,0.02107
2028.71439,0.02132
2026.65478,0.02234
2024.59517,0.02339
2022.53556,0.02323
2020.47596,0.02230
2018.41635,0.02167
2016.35674,0.02159
2014.29713,0.02175
2012.23752,0.02206
2010.17791,0.02188
2008.11830,0.02057
2006.05870,0.01959
2003.99909,0.02003
2001.93948,0.02084
1999.87987,0.02148
1997.82026,0.02191
1995.76065,0.02219
1993.70105,0.02251
1991.64144,0.02290
1989.58183,0.02376
1987.52222,0.02473
1985.46261,0.02472
1983.40300,0.02386
1981.34339,0.02287
1979.28379,0.02143
1977.22418,0.01981
1975.16457,0.01915
1973.10496,0.01952
1971.04535,0.02012
1968.98574,0.01990
1966.92613,0.01942
1964.86653,0.02003
1962.80692,0.02146
1960.74731,0.02273
1958.68770,0.02287
1956.62809,0.02214
1954.56848,0.02208
1952.50887,0.02268
1950.44927,0.02252
1948.38966,0.02157
1946.33005,0.02093
1944.27044,0.02111
1942.21083,0.02154
1940.15122,0.02185
1938.09162,0.02238
1936.03201,0.02279
1933.97240,0.02287
1931.91279,0.02289
1929.85318,0.02267
1927.79357,0.02237
1925.73396,0.02240
1923.67436,0.02269
1921.61475,0.02285
1919.55514,0.02268
1917.49553,0.02243
1915.43592,0.02194
1913.37631,0.02129
1911.31670,0.02132
1909.25710,0.02199
1907.19749,0.02253
1905.13788,0.02259
1903.07827,0.02224
1901.01866,0.02187
1898.95905,0.02189
1896.89944,0.02226
1894.83984,0.02258
1892.78023,0.02242
1890.72062,0.02205
1888.66101,0.02190
1886.60140,0.02177
1884.54179,0.02154
1882.48219,0.02141
1880.42258,0.02142
1878.36297,0.02161
1876.30336,0.02187
1874.24375,0.02189
1872.18414,0.02179
1870.12453,0.02159
1868.06493,0.02113
1866.00532,0.02089
1863.94571,0.02091
1861.88610,0.02085
1859.82649,0.02086
1857.76688,0.02105
1855.70727,0.02113
1853.64767,0.02094
1851.58806,0.02062
1849.52845,0.02033
1847.46884,0.02022
1845.40923,0.02044
1843.34962,0.02078
1841.29002,0.02077
1839.23041,0.02045
1837.17080,0.02024
1835.11119,0.02029
1833.05158,0.02034
1830.99197,0.02010
1828.93236,0.01966
1826.87276,0.01951
1824.81315,0.01959
1822.75354,0.01945
1820.69393,0.01918
1818.63432,0.01905
1816.57471,0.01906
1814.51510,0.01911
1812.45550,0.01899
1810.39589,0.01867
1808.33628,0.01850
1806.27667,0.01852
1804.21706,0.01858
1802.15745,0.01851
1800.09784,0.01828
1798.03824,0.01803
1795.97863,0.01781
1793.91902,0.01763
1791.85941,0.01759
1789.79980,0.01760
1787.74019,0.01756
1785.68059,0.01753
1783.62098,0.01746
1781.56137,0.01739
1779.50176,0.01723
1777.44215,0.01681
1775.38254,0.01650
1773.32293,0.01643
1771.26333,0.01632
1769.20372,0.01613
1767.14411,0.01587
1765.08450,0.01564
1763.02489,0.01556
1760.96528,0.01557
1758.90567,0.01550
1756.84607,0.01530
1754.78646,0.01510
1752.72685,0.01498
1750.66724,0.01483
1748.60763,0.01462
1746.54802,0.01444
1744.48841,0.01430
1742.42881,0.01421
1740.36920,0.01414
1738.30959,0.01395
1736.24998,0.01373
1734.19037,0.01365
1732.13076,0.01363
1730.07116,0.01352
1728.01155,0.01342
1725.95194,0.01332
1723.89233,0.01325
1721.83272,0.01332
1719.77311,0.01354
1717.71350,0.01392
1715.65390,0.01452
1713.59429,0.01538
1711.53468,0.01669
1709.47507,0.01875
1707.41546,0.02207
1705.35585,0.02718
1703.29624,0.03254
1701.23664,0.03750
1699.17703,0.04160
1697.11742,0.04290
1695.05781,0.04256
1692.99820,0.04225
1690.93859,0.04236
1688.87898,0.04276
1686.81938,0.04337
1684.75977,0.04469
1682.70016,0.04671
1680.64055,0.04850
1678.58094,0.05018
1676.52133,0.05205
1674.46173,0.05440
1672.40212,0.05687
1670.34251,0.05933
1668.28290,0.06181
1666.22329,0.06400
1664.16368,0.06647
1662.10407,0.06969
1660.04447,0.07289
1657.98486,0.07558
1655.92525,0.07792
1653.86564,0.08108
1651.80603,0.08525
1649.74642,0.08784
1647.68681,0.09042
1645.62721,0.09400
1643.56760,0.09718
1641.50799,0.10009
1639.44838,0.10319
1637.38877,0.10676
1635.32916,0.11148
1633.26955,0.11600
1631.20995,0.11964
1629.15034,0.12337
1627.09073,0.12696
1625.03112,0.13001
1622.97151,0.13281
1620.91190,0.13465
1618.85230,0.13517
1616.79269,0.13457
1614.73308,0.13277
1612.67347,0.13019
1610.61386,0.12688
1608.55425,0.12288
1606.49464,0.11832
1604.43504,0.11331
1602.37543,0.10805
1600.31582,0.10302
1598.25621,0.09845
1596.19660,0.09409
1594.13699,0.08984
1592.07738,0.08589
1590.01778,0.08218
1587.95817,0.07869
1585.89856,0.07563
1583.83895,0.07317
1581.77934,0.07141
1579.71973,0.07030
1577.66012,0.06953
1575.60052,0.06889
1573.54091,0.06864
1571.48130,0.06885
1569.42169,0.06961
1567.36208,0.07075
1565.30247,0.07214
1563.24287,0.07365
1561.18326,0.07521
1559.12365,0.07786
1557.06404,0.08093
1555.00443,0.08291
1552.94482,0.08477
1550.88521,0.08672
1548.82561,0.08875
1546.76600,0.09075
1544.70639,0.09290
1542.64678,0.09535
1540.58717,0.09835
1538.52756,0.10149
1536.46795,0.10347
1534.40835,0.10541
1532.34874,0.10813
1530.28913,0.11068
1528.22952,0.11293
1526.16991,0.11523
1524.11030,0.11740
1522.05069,0.11997
1519.99109,0.12307
1517.93148,0.12621
1515.87187,0.12951
1513.81226,0.13196
1511.75265,0.13315
1509.69304,0.13348
1507.63344,0.13302
1505.57383,0.13171
1503.51422,0.13023
1501.45461,0.12868
1499.39500,0.12664
1497.33539,0.12382
1495.27578,0.12060
1493.21618,0.11764
1491.15657,0.11439
1489.09696,0.11038
1487.03735,0.10639
1484.97774,0.10286
1482.91813,0.09957
1480.85852,0.09643
1478.79892,0.09361
1476.73931,0.09108
1474.67970,0.08873
1472.62009,0.08655
1470.56048,0.08469
1468.50087,0.08327
1466.44126,0.08198
1464.38166,0.08069
1462.32205,0.07970
1460.26244,0.07928
1458.20283,0.07972
1456.14322,0.08129
1454.08361,0.08321
1452.02401,0.08524
1449.96440,0.08741
1447.90479,0.08957
1445.84518,0.09138
1443.78557,0.09250
1441.72596,0.09309
1439.66635,0.09321
1437.60675,0.09264
1435.54714,0.09115
1433.48753,0.08915
1431.42792,0.08677
1429.36831,0.08408
1427.30870,0.08174
1425.24909,0.08010
1423.18949,0.07900
1421.12988,0.07818
1419.07027,0.07759
1417.01066,0.07732
1414.95105,0.07722
1412.89144,0.07721
1410.83183,0.07736
1408.77223,0.07752
1406.71262,0.07756
1404.65301,0.07741
1402.59340,0.07711
1400.53379,0.07656
1398.47418,0.07586
1396.41458,0.07521
1394.35497,0.07463
1392.29536,0.07409
1390.23575,0.07354
1388.17614,0.07301
1386.11653,0.07263
1384.05692,0.07233
1381.99732,0.07196
1379.93771,0.07160
1377.87810,0.07132
1375.81849,0.07111
1373.75888,0.07100
1371.69927,0.07091
1369.63966,0.07089
1367.58006,0.07085
1365.52045,0.07049
1363.46084,0.06969
1361.40123,0.06857
1359.34162,0.06735
1357.28201,0.06619
1355.22240,0.06516
1353.16280,0.06440
1351.10319,0.06394
1349.04358,0.06359
1346.98397,0.06329
1344.92436,0.06309
1342.86475,0.06299
1340.80515,0.06295
1338.74554,0.06298
1336.68593,0.06294
1334.62632,0.06273
1332.56671,0.06248
1330.50710,0.06223
1328.44749,0.06188
1326.38789,0.06139
1324.32828,0.06088
1322.26867,0.06038
1320.20906,0.05986
1318.14945,0.05941
1316.08984,0.05905
1314.03023,0.05872
1311.97063,0.05837
1309.91102,0.05798
1307.85141,0.05764
1305.79180,0.05744
1303.73219,0.05724
1301.67258,0.05688
1299.61297,0.05649
1297.55337,0.05615
1295.49376,0.05579
1293.43415,0.05541
1291.37454,0.05511
1289.31493,0.05493
1287.25532,0.05483
1285.19572,0.05480
1283.13611,0.05487
1281.07650,0.05506
1279.01689,0.05539
1276.95728,0.05598
1274.89767,0.05687
1272.83806,0.05809
1270.77846,0.05956
1268.71885,0.06115
1266.65924,0.06261
1264.59963,0.06377
1262.54002,0.06455
1260.48041,0.06497
1258.42080,0.06512
1256.36120,0.06519
1254.30159,0.06525
1252.24198,0.06533
1250.18237,0.06549
1248.12276,0.06577
1246.06315,0.06616
1244.00354,0.06664
1241.94394,0.06741
1239.88433,0.06854
1237.82472,0.06987
1235.76511,0.07131
1233.70550,0.07281
1231.64589,0.07421
1229.58629,0.07524
1227.52668,0.07575
1225.46707,0.07583
1223.40746,0.07558
1221.34785,0.07505
1219.28824,0.07438
1217.22863,0.07368
1215.16903,0.07285
1213.10942,0.07174
1211.04981,0.07037
1208.99020,0.06882
1206.93059,0.06704
1204.87098,0.06520
1202.81137,0.06347
1200.75177,0.06180
1198.69216,0.06023
1196.63255,0.05886
1194.57294,0.05766
1192.51333,0.05661
1190.45372,0.05571
1188.39411,0.05485
1186.33451,0.05401
1184.27490,0.05321
1182.21529,0.05256
1180.15568,0.05233
1178.09607,0.05257
1176.03646,0.05315
1173.97686,0.05406
1171.91725,0.05503
1169.85764,0.05572
1167.79803,0.05616
1165.73842,0.05647
1163.67881,0.05657
1161.61920,0.05647
1159.55960,0.05627
1157.49999,0.05597
1155.44038,0.05544
1153.38077,0.05462
1151.32116,0.05363
1149.26155,0.05266
1147.20194,0.05173
1145.14234,0.05073
1143.08273,0.04977
1141.02312,0.04896
1138.96351,0.04826
1136.90390,0.04768
1134.84429,0.04713
1132.78468,0.04655
1130.72508,0.04600
1128.66547,0.04559
1126.60586,0.04529
1124.54625,0.04501
1122.48664,0.04467
1120.42703,0.04426
1118.36743,0.04389
1116.30782,0.04365
1114.24821,0.04344
1112.18860,0.04324
1110.12899,0.04305
1108.06938,0.04286
1106.00977,0.04276
1103.95017,0.04280
1101.89056,0.04281
1099.83095,0.04261
1097.77134,0.04231
1095.71173,0.04195
1093.65212,0.04158
1091.59251,0.04140
1089.53291,0.04150
1087.47330,0.04181
1085.41369,0.04235
1083.35408,0.04312
1081.29447,0.04401
1079.23486,0.04493
1077.17525,0.04585
1075.11565,0.04670
1073.05604,0.04746
1070.99643,0.04822
1068.93682,0.04884
1066.87721,0.04916
1064.81760,0.04928
1062.75800,0.04926
1060.69839,0.04906
1058.63878,0.04881
1056.57917,0.04851
1054.51956,0.04812
1052.45995,0.04766
1050.40034,0.04720
1048.34074,0.04693
1046.28113,0.04682
1044.22152,0.04668
1042.16191,0.04635
1040.10230,0.04586
1038.04269,0.04535
1035.98308,0.04486
1033.92348,0.04440
1031.86387,0.04391
1029.80426,0.04330
1027.74465,0.04255
1025.68504,0.04186
1023.62543,0.04135
1021.56582,0.04097
1019.50622,0.04075
1017.44661,0.04071
1015.38700,0.04071
1013.32739,0.04062
1011.26778,0.04050
1009.20817,0.04045
1007.14857,0.04053
1005.08896,0.04081
1003.02935,0.04122
1000.96974,0.04159
998.91013,0.04192
996.85052,0.04219
994.79091,0.04219
992.73131,0.04181
990.67170,0.04107
988.61209,0.04016
986.55248,0.03941
984.49287,0.03899
982.43326,0.03897
980.37365,0.03924
978.31405,0.03967
976.25444,0.04006
974.19483,0.04013
972.13522,0.03990
970.07561,0.03952
968.01600,0.03889
965.95639,0.03815
963.89679,0.03753
961.83718,0.03699
959.77757,0.03649
957.71796,0.03608
955.65835,0.03572
953.59874,0.03537
951.53914,0.03497
949.47953,0.03450
947.41992,0.03401
945.36031,0.03360
943.30070,0.03329
941.24109,0.03308
939.18148,0.03295
937.12188,0.03289
935.06227,0.03285
933.00266,0.03277
930.94305,0.03264
928.88344,0.03255
926.82383,0.03252
924.76422,0.03241
922.70462,0.03218
920.64501,0.03191
918.58540,0.03153
916.52579,0.03103
914.46618,0.03058
912.40657,0.03025
910.34696,0.02999
908.28736,0.02969
906.22775,0.02937
904.16814,0.02910
902.10853,0.02889
900.04892,0.02880
897.98931,0.02885
895.92971,0.02884
893.87010,0.02864
891.81049,0.02840
889.75088,0.02823
887.69127,0.02807
885.63166,0.02795
883.57205,0.02786
881.51245,0.02773
879.45284,0.02759
877.39323,0.02742
875.33362,0.02715
873.27401,0.02682
871.21440,0.02649
869.15479,0.02626
867.09519,0.02615
865.03558,0.02606
862.97597,0.02602
860.91636,0.02614
858.85675,0.02633
856.79714,0.02658
854.73753,0.02682
852.67793,0.02695
850.61832,0.02703
848.55871,0.02696
846.49910,0.02675
844.43949,0.02650
842.37988,0.02623
840.32028,0.02602
838.26067,0.02601
836.20106,0.02621
834.14145,0.02643
832.08184,0.02654
830.02223,0.02665
827.96262,0.02684
825.90302,0.02687
823.84341,0.02659
821.78380,0.02634
819.72419,0.02634
817.66458,0.02632
815.60497,0.02623
813.54536,0.02618
811.48576,0.02602
809.42615,0.02581
807.36654,0.02565
805.30693,0.02543
803.24732,0.02522
801.18771,0.02514
799.12810,0.02503
797.06850,0.02497
795.00889,0.02502
792.94928,0.02504
790.88967,0.02503
788.83006,0.02505
786.77045,0.02508
784.71085,0.02512
782.65124,0.02518
780.59163,0.02538
778.53202,0.02570
776.47241,0.02599
774.41280,0.02628
772.35319,0.02671
770.29359,0.02718
768.23398,0.02751
766.17437,0.02770
764.11476,0.02778
762.05515,0.02777
759.99554,0.02774
757.93593,0.02778
755.87633,0.02790
753.81672,0.02812
751.75711,0.02840
749.69750,0.02863
747.63789,0.02888
745.57828,0.02930
743.51867,0.02982
741.45907,0.03035
739.39946,0.03096
737.33985,0.03173
735.28024,0.03239
733.22063,0.03291
731.16102,0.03352
729.10142,0.03415
727.04181,0.03468
724.98220,0.03529
722.92259,0.03600
720.86298,0.03660
718.80337,0.03710
716.74376,0.03761
714.68416,0.03809
712.62455,0.03848
710.56494,0.03887
708.50533,0.03933
706.44572,0.03977
704.38611,0.04021
702.32650,0.04073
700.26690,0.04127
698.20729,0.04171
696.14768,0.04203
694.08807,0.04230
692.02846,0.04252
689.96885,0.04264
687.90924,0.04270
685.84964,0.04271
683.79003,0.04267
681.73042,0.04256
679.67081,0.04248
677.61120,0.04240
675.55159,0.04229
673.49199,0.04222
671.43238,0.04223
669.37277,0.04229
667.31316,0.04238
665.25355,0.04230
663.19394,0.04205
661.13433,0.04188
659.07473,0.04189
657.01512,0.04201
654.95551,0.04221
652.89590,0.04255
650.83629,0.04290
648.77668,0.04314
646.71707,0.04336
644.65747,0.04346
642.59786,0.04350
640.53825,0.04366
638.47864,0.04384
636.41903,0.04405
634.35942,0.04429
632.29981,0.04446
630.24021,0.04451
628.18060,0.04446
626.12099,0.04444
624.06138,0.04445
622.00177,0.04437
619.94216,0.04432
617.88256,0.04436
615.82295,0.04426
613.76334,0.04415
611.70373,0.04416
609.64412,0.04414
607.58451,0.04404
605.52490,0.04385
603.46530,0.04340
601.40569,0.04272
599.34608,0.04202
597.28647,0.04137
595.22686,0.04074
593.16725,0.04027
591.10764,0.03999
589.04804,0.03967
586.98843,0.03925
584.92882,0.03888
582.86921,0.03865
580.80960,0.03850
578.74999,0.03838
576.69039,0.03832
574.63078,0.03833
572.57117,0.03822
570.51156,0.03794
568.45195,0.03779
566.39234,0.03795
564.33273,0.03846
562.27313,0.03944
560.21352,0.04074
558.15391,0.04189
556.09430,0.04272
554.03469,0.04350
551.97508,0.04419
549.91547,0.04452
547.85587,0.04435
545.79626,0.04385
543.73665,0.04336
541.67704,0.04302
539.61743,0.04272
537.55782,0.04227
535.49821,0.04162
533.43861,0.04109
531.37900,0.04071
529.31939,0.04024
527.25978,0.03966
525.20017,0.03902
523.14056,0.03850
521.08096,0.03827
519.02135,0.03804
516.96174,0.03768
514.90213,0.03746
512.84252,0.03733
510.78291,0.03689
508.72330,0.03634
506.66370,0.03615
504.60409,0.03605
502.54448,0.03570
500.48487,0.03523
498.42526,0.03484
496.36565,0.03446
494.30604,0.03403
492.24644,0.03384
490.18683,0.03394
488.12722,0.03396
486.06761,0.03374
484.00800,0.03338
481.94839,0.03289
479.88878,0.03227
477.82918,0.03177
475.76957,0.03176
473.70996,0.03175
471.65035,0.03109
469.59074,0.03041
467.53113,0.03019
465.47153,0.03004
463.41192,0.02972
461.35231,0.02934
459.29270,0.02911
457.23309,0.02910
455.17348,0.02892
453.11387,0.02847
451.05427,0.02818
448.99466,0.02820
446.93505,0.02824
444.87544,0.02828
442.81583,0.02832
440.75622,0.02824
438.69661,0.02811
436.63701,0.02799
434.57740,0.02792
432.51779,0.02805
430.45818,0.02833
428.39857,0.02881
426.33896,0.02938
424.27935,0.02960
422.21975,0.02940
420.16014,0.02877
418.10053,0.02788
416.04092,0.02758
413.98131,0.02762
411.92170,0.02738
409.86210,0.02700
407.80249,0.02640
405.74288,0.02561
403.68327,0.02495
401.62366,0.02444
399.56405,0.02395
