3997.70013,0.08768
3995.64052,0.08790
3993.58092,0.08853
3991.52131,0.08844
3989.46170,0.08793
3987.40209,0.08770
3985.34248,0.08722
3983.28287,0.08664
3981.22327,0.08677
3979.16366,0.08720
3977.10405,0.08702
3975.04444,0.08679
3972.98483,0.08754
3970.92522,0.08829
3968.86561,0.08776
3966.80601,0.08683
3964.74640,0.08659
3962.68679,0.08674
3960.62718,0.08662
3958.56757,0.08617
3956.50796,0.08564
3954.44835,0.08549
3952.38875,0.08600
3950.32914,0.08652
3948.26953,0.08656
3946.20992,0.08640
3944.15031,0.08648
3942.09070,0.08689
3940.03109,0.08709
3937.97149,0.08687
3935.91188,0.08651
3933.85227,0.08593
3931.79266,0.08520
3929.73305,0.08483
3927.67344,0.08495
3925.61384,0.08570
3923.55423,0.08668
3921.49462,0.08693
3919.43501,0.08671
3917.37540,0.08650
3915.31579,0.08612
3913.25618,0.08558
3911.19658,0.08480
3909.13697,0.08416
3907.07736,0.08446
3905.01775,0.08516
3902.95814,0.08562
3900.89853,0.08579
3898.83892,0.08541
3896.77932,0.08472
3894.71971,0.08418
3892.66010,0.08390
3890.60049,0.08383
3888.54088,0.08368
3886.48127,0.08344
3884.42166,0.08342
3882.36206,0.08360
3880.30245,0.08389
3878.24284,0.08373
3876.18323,0.08290
3874.12362,0.08234
3872.06401,0.08254
3870.00441,0.08293
3867.94480,0.08285
3865.88519,0.08229
3863.82558,0.08179
3861.76597,0.08180
3859.70636,0.08196
3857.64675,0.08185
3855.58715,0.08133
3853.52754,0.08091
3851.46793,0.08189
3849.40832,0.08308
3847.34871,0.08296
3845.28910,0.08187
3843.22949,0.08132
3841.16989,0.08156
3839.11028,0.08179
3837.05067,0.08218
3834.99106,0.08251
3832.93145,0.08197
3830.87184,0.08122
3828.81223,0.08099
3826.75263,0.08067
3824.69302,0.07999
3822.63341,0.07944
3820.57380,0.07977
3818.51419,0.08034
3816.45458,0.08046
3814.39498,0.08050
3812.33537,0.08021
3810.27576,0.07954
3808.21615,0.07924
3806.15654,0.08010
3804.09693,0.08123
3802.03732,0.08152
3799.97772,0.08109
3797.91811,0.08039
3795.85850,0.08006
3793.79889,0.08015
3791.73928,0.07999
3789.67967,0.07988
3787.62006,0.07985
3785.56046,0.07937
3783.50085,0.07896
3781.44124,0.07917
3779.38163,0.07983
3777.32202,0.08014
3775.26241,0.07982
3773.20280,0.07949
3771.14320,0.07933
3769.08359,0.07927
3767.02398,0.07901
3764.96437,0.07847
3762.90476,0.07826
3760.84515,0.07836
3758.78555,0.07827
3756.72594,0.07770
3754.66633,0.07702
3752.60672,0.07665
3750.54711,0.07650
3748.48750,0.07663
3746.42789,0.07715
3744.36829,0.07742
3742.30868,0.07684
3740.24907,0.07611
3738.18946,0.07584
3736.12985,0.07596
3734.07024,0.07594
3732.01063,0.07620
3729.95103,0.07691
3727.89142,0.07721
3725.83181,0.07671
3723.77220,0.07612
3721.71259,0.07596
3719.65298,0.07569
3717.59337,0.07564
3715.53377,0.07574
3713.47416,0.07496
3711.41455,0.07458
3709.35494,0.07546
3707.29533,0.07555
3705.23572,0.07506
3703.17612,0.07487
3701.11651,0.07474
3699.05690,0.07483
3696.99729,0.07522
3694.93768,0.07517
3692.87807,0.07428
3690.81846,0.07341
3688.75886,0.07331
3686.69925,0.07324
3684.63964,0.07300
3682.58003,0.07302
3680.52042,0.07311
3678.46081,0.07352
3676.40120,0.07474
3674.34160,0.07507
3672.28199,0.07381
3670.22238,0.07282
3668.16277,0.07272
3666.10316,0.07296
3664.04355,0.07334
3661.98394,0.07383
3659.92434,0.07434
3657.86473,0.07466
3655.80512,0.07460
3653.74551,0.07419
3651.68590,0.07406
3649.62629,0.07425
3647.56669,0.07361
3645.50708,0.07301
3643.44747,0.07349
3641.38786,0.07416
3639.32825,0.07451
3637.26864,0.07481
3635.20903,0.07473
3633.14943,0.07434
3631.08982,0.07446
3629.03021,0.07494
3626.97060,0.07525
3624.91099,0.07560
3622.85138,0.07606
3620.79177,0.07648
3618.73217,0.07669
3616.67256,0.07650
3614.61295,0.07637
3612.55334,0.07675
3610.49373,0.07687
3608.43412,0.07645
3606.37451,0.07645
3604.31491,0.07681
3602.25530,0.07714
3600.19569,0.07763
3598.13608,0.07792
3596.07647,0.07756
3594.01686,0.07704
3591.95726,0.07684
3589.89765,0.07695
3587.83804,0.07776
3585.77843,0.07889
3583.71882,0.07917
3581.65921,0.07916
3579.59960,0.07973
3577.54000,0.08004
3575.48039,0.07961
3573.42078,0.08007
3571.36117,0.08190
3569.30156,0.08330
3567.24195,0.08301
3565.18234,0.08191
3563.12274,0.08137
3561.06313,0.08148
3559.00352,0.08201
3556.94391,0.08279
3554.88430,0.08333
3552.82469,0.08360
3550.76508,0.08404
3548.70548,0.08444
3546.64587,0.08477
3544.58626,0.08519
3542.52665,0.08555
3540.46704,0.08590
3538.40743,0.08640
3536.34783,0.08673
3534.28822,0.08662
3532.22861,0.08669
3530.16900,0.08712
3528.10939,0.08742
3526.04978,0.08775
3523.99017,0.08818
3521.93057,0.08857
3519.87096,0.08888
3517.81135,0.08907
3515.75174,0.08934
3513.69213,0.08936
3511.63252,0.08907
3509.57291,0.08875
3507.51331,0.08893
3505.45370,0.09023
3503.39409,0.09169
3501.33448,0.09218
3499.27487,0.09199
3497.21526,0.09186
3495.15565,0.09203
3493.09605,0.09219
3491.03644,0.09228
3488.97683,0.09266
3486.91722,0.09338
3484.85761,0.09390
3482.79800,0.09368
3480.73840,0.09335
3478.67879,0.09360
3476.61918,0.09389
3474.55957,0.09399
3472.49996,0.09401
3470.44035,0.09379
3468.38074,0.09366
3466.32114,0.09403
3464.26153,0.09468
3462.20192,0.09508
3460.14231,0.09514
3458.08270,0.09540
3456.02309,0.09558
3453.96348,0.09519
3451.90388,0.09480
3449.84427,0.09501
3447.78466,0.09554
3445.72505,0.09593
3443.66544,0.09610
3441.60583,0.09612
3439.54622,0.09633
3437.48662,0.09680
3435.42701,0.09726
3433.36740,0.09767
3431.30779,0.09796
3429.24818,0.09844
3427.18857,0.09926
3425.12897,0.09992
3423.06936,0.10024
3421.00975,0.10069
3418.95014,0.10128
3416.89053,0.10168
3414.83092,0.10193
3412.77131,0.10202
3410.71171,0.10194
3408.65210,0.10192
3406.59249,0.10222
3404.53288,0.10289
3402.47327,0.10384
3400.41366,0.10485
3398.35405,0.10548
3396.29445,0.10560
3394.23484,0.10555
3392.17523,0.10544
3390.11562,0.10558
3388.05601,0.10609
3385.99640,0.10650
3383.93679,0.10702
3381.87719,0.10783
3379.81758,0.10859
3377.75797,0.10936
3375.69836,0.11023
3373.63875,0.11122
3371.57914,0.11207
3369.51954,0.11232
3367.45993,0.11226
3365.40032,0.11257
3363.34071,0.11326
3361.28110,0.11420
3359.22149,0.11530
3357.16188,0.11595
3355.10228,0.11629
3353.04267,0.11734
3350.98306,0.11895
3348.92345,0.12014
3346.86384,0.12125
3344.80423,0.12304
3342.74462,0.12524
3340.68502,0.12755
3338.62541,0.12990
3336.56580,0.13201
3334.50619,0.13394
3332.44658,0.13612
3330.38697,0.13884
3328.32736,0.14184
3326.26776,0.14485
3324.20815,0.14798
3322.14854,0.15139
3320.08893,0.15521
3318.02932,0.15896
3315.96971,0.16235
3313.91011,0.16610
3311.85050,0.17034
3309.79089,0.17436
3307.73128,0.17838
3305.67167,0.18287
3303.61206,0.18765
3301.55245,0.19244
3299.49285,0.19735
3297.43324,0.20260
3295.37363,0.20779
3293.31402,0.21241
3291.25441,0.21664
3289.19480,0.22067
3287.13519,0.22449
3285.07559,0.22792
3283.01598,0.23082
3280.95637,0.23323
3278.89676,0.23498
3276.83715,0.23592
3274.77754,0.23629
3272.71793,0.23639
3270.65833,0.23600
3268.59872,0.23464
3266.53911,0.23267
3264.47950,0.23071
3262.41989,0.22852
3260.36028,0.22609
3258.30068,0.22356
3256.24107,0.22046
3254.18146,0.21713
3252.12185,0.21420
3250.06224,0.21150
3248.00263,0.20872
3245.94302,0.20574
3243.88342,0.20289
3241.82381,0.20029
3239.76420,0.19781
3237.70459,0.19562
3235.64498,0.19349
3233.58537,0.19146
3231.52576,0.18963
3229.46616,0.18758
3227.40655,0.18564
3225.34694,0.18414
3223.28733,0.18244
3221.22772,0.18047
3219.16811,0.17837
3217.10850,0.17638
3215.04890,0.17486
3212.98929,0.17349
3210.92968,0.17195
3208.87007,0.17034
3206.81046,0.16881
3204.75085,0.16710
3202.69125,0.16541
3200.63164,0.16406
3198.57203,0.16282
3196.51242,0.16156
3194.45281,0.16010
3192.39320,0.15857
3190.33359,0.15712
3188.27399,0.15564
3186.21438,0.15419
3184.15477,0.15259
3182.09516,0.15098
3180.03555,0.14976
3177.97594,0.14858
3175.91633,0.14712
3173.85673,0.14564
3171.79712,0.14443
3169.73751,0.14318
3167.67790,0.14182
3165.61829,0.14080
3163.55868,0.13992
3161.49907,0.13889
3159.43947,0.13775
3157.37986,0.13652
3155.32025,0.13547
3153.26064,0.13470
3151.20103,0.13395
3149.14142,0.13310
3147.08182,0.13215
3145.02221,0.13126
3142.96260,0.13042
3140.90299,0.12948
3138.84338,0.12859
3136.78377,0.12788
3134.72416,0.12754
3132.66456,0.12740
3130.60495,0.12674
3128.54534,0.12581
3126.48573,0.12535
3124.42612,0.12536
3122.36651,0.12512
3120.30690,0.12458
3118.24730,0.12456
3116.18769,0.12486
3114.12808,0.12498
3112.06847,0.12532
3110.00886,0.12553
3107.94925,0.12501
3105.88965,0.12447
3103.83004,0.12457
3101.77043,0.12478
3099.71082,0.12456
3097.65121,0.12438
3095.59160,0.12472
3093.53199,0.12535
3091.47239,0.12598
3089.41278,0.12656
3087.35317,0.12717
3085.29356,0.12765
3083.23395,0.12787
3081.17434,0.12804
3079.11473,0.12851
3077.05513,0.12902
3074.99552,0.12902
3072.93591,0.12875
3070.87630,0.12862
3068.81669,0.12848
3066.75708,0.12819
3064.69747,0.12768
3062.63787,0.12736
3060.57826,0.12744
3058.51865,0.12736
3056.45904,0.12678
3054.39943,0.12586
3052.33982,0.12508
3050.28022,0.12454
3048.22061,0.12391
3046.16100,0.12342
3044.10139,0.12300
3042.04178,0.12203
3039.98217,0.12072
3037.92256,0.11977
3035.86296,0.11916
3033.80335,0.11844
3031.74374,0.11775
3029.68413,0.11727
3027.62452,0.11646
3025.56491,0.11537
3023.50530,0.11445
3021.44570,0.11385
3019.38609,0.11363
3017.32648,0.11360
3015.26687,0.11338
3013.20726,0.11272
3011.14765,0.11173
3009.08804,0.11085
3007.02844,0.11057
3004.96883,0.11072
3002.90922,0.11057
3000.84961,0.11002
2998.79000,0.10990
2996.73039,0.11050
2994.67079,0.11110
2992.61118,0.11126
2990.55157,0.11148
2988.49196,0.11200
2986.43235,0.11243
2984.37274,0.11274
2982.31313,0.11307
2980.25353,0.11346
2978.19392,0.11377
2976.13431,0.11395
2974.07470,0.11428
2972.01509,0.11457
2969.95548,0.11459
2967.89587,0.11463
2965.83627,0.11448
2963.77666,0.11351
2961.71705,0.11226
2959.65744,0.11145
2957.59783,0.11066
2955.53822,0.10982
2953.47861,0.10932
2951.41901,0.10936
2949.35940,0.11001
2947.29979,0.11092
2945.24018,0.11169
2943.18057,0.11228
2941.12096,0.11284
2939.06136,0.11358
2937.00175,0.11455
2934.94214,0.11530
2932.88253,0.11518
2930.82292,0.11408
2928.76331,0.11219
2926.70370,0.10935
2924.64410,0.10521
2922.58449,0.09983
2920.52488,0.09349
2918.46527,0.08717
2916.40566,0.08387
2914.34605,0.08627
2912.28644,0.09249
2910.22684,0.09821
2908.16723,0.10170
2906.10762,0.10374
2904.04801,0.10485
2901.98840,0.10510
2899.92879,0.10514
2897.86918,0.10517
2895.80958,0.10486
2893.74997,0.10445
2891.69036,0.10433
2889.63075,0.10458
2887.57114,0.10499
2885.51153,0.10538
2883.45193,0.10562
2881.39232,0.10573
2879.33271,0.10600
2877.27310,0.10653
2875.21349,0.10696
2873.15388,0.10710
2871.09427,0.10703
2869.03467,0.10677
2866.97506,0.10630
2864.91545,0.10557
2862.85584,0.10450
2860.79623,0.10335
2858.73662,0.10206
2856.67701,0.09999
2854.61741,0.09650
2852.55780,0.09104
2850.49819,0.08493
2848.43858,0.08260
2846.37897,0.08632
2844.31936,0.09239
2842.25975,0.09673
2840.20015,0.09891
2838.14054,0.09967
2836.08093,0.09949
2834.02132,0.09911
2831.96171,0.09890
2829.90210,0.09876
2827.84250,0.09883
2825.78289,0.09916
2823.72328,0.09924
2821.66367,0.09897
2819.60406,0.09852
2817.54445,0.09800
2815.48484,0.09785
2813.42524,0.09804
2811.36563,0.09813
2809.30602,0.09792
2807.24641,0.09747
2805.18680,0.09717
2803.12719,0.09709
2801.06758,0.09701
2799.00798,0.09688
2796.94837,0.09662
2794.88876,0.09644
2792.82915,0.09655
2790.76954,0.09657
2788.70993,0.09631
2786.65032,0.09601
2784.59072,0.09568
2782.53111,0.09533
2780.47150,0.09513
2778.41189,0.09510
2776.35228,0.09531
2774.29267,0.09538
2772.23307,0.09474
2770.17346,0.09396
2768.11385,0.09379
2766.05424,0.09380
2763.99463,0.09353
2761.93502,0.09325
2759.87541,0.09325
2757.81581,0.09332
2755.75620,0.09310
2753.69659,0.09272
2751.63698,0.09242
2749.57737,0.09226
2747.51776,0.09204
2745.45815,0.09170
2743.39855,0.09150
2741.33894,0.09132
2739.27933,0.09096
2737.21972,0.09079
2735.16011,0.09081
2733.10050,0.09067
2731.04089,0.09040
2728.98129,0.09019
2726.92168,0.09009
2724.86207,0.08991
2722.80246,0.08962
2720.74285,0.08925
2718.68324,0.08894
2716.62364,0.08881
2714.56403,0.08857
2712.50442,0.08822
2710.44481,0.08799
2708.38520,0.08788
2706.32559,0.08783
2704.26598,0.08781
2702.20638,0.08777
2700.14677,0.08755
2698.08716,0.08718
2696.02755,0.08676
2693.96794,0.08649
2691.90833,0.08651
2689.84872,0.08648
2687.78912,0.08625
2685.72951,0.08597
2683.66990,0.08561
2681.61029,0.08534
2679.55068,0.08550
2677.49107,0.08582
2675.43146,0.08571
2673.37186,0.08530
2671.31225,0.08509
2669.25264,0.08516
2667.19303,0.08522
2665.13342,0.08500
2663.07381,0.08467
2661.01421,0.08441
2658.95460,0.08423
2656.89499,0.08441
2654.83538,0.08481
2652.77577,0.08463
2650.71616,0.08385
2648.65655,0.08334
2646.59695,0.08336
2644.53734,0.08334
2642.47773,0.08309
2640.41812,0.08284
2638.35851,0.08256
2636.29890,0.08221
2634.23929,0.08198
2632.17969,0.08177
2630.12008,0.08124
2628.06047,0.08055
2626.00086,0.08039
2623.94125,0.08088
2621.88164,0.08131
2619.82203,0.08126
2617.76243,0.08103
2615.70282,0.08090
2613.64321,0.08066
2611.58360,0.08005
2609.52399,0.07955
2607.46438,0.07947
2605.40478,0.07932
2603.34517,0.07910
2601.28556,0.07922
2599.22595,0.07916
2597.16634,0.07854
2595.10673,0.07799
2593.04712,0.07769
2590.98752,0.07756
2588.92791,0.07764
2586.86830,0.07760
2584.80869,0.07737
2582.74908,0.07708
2580.68947,0.07683
2578.62986,0.07669
2576.57026,0.07653
2574.51065,0.07627
2572.45104,0.07582
2570.39143,0.07545
2568.33182,0.07543
2566.27221,0.07517
2564.21260,0.07475
2562.15300,0.07478
2560.09339,0.07493
2558.03378,0.07493
2555.97417,0.07501
2553.91456,0.07488
2551.85495,0.07425
2549.79535,0.07352
2547.73574,0.07331
2545.67613,0.07369
2543.61652,0.07400
2541.55691,0.07381
2539.49730,0.07358
2537.43769,0.07363
2535.37809,0.07342
2533.31848,0.07283
2531.25887,0.07259
2529.19926,0.07249
2527.13965,0.07196
2525.08004,0.07151
2523.02043,0.07182
2520.96083,0.07251
2518.90122,0.07271
2516.84161,0.07241
2514.78200,0.07202
2512.72239,0.07169
2510.66278,0.07157
2508.60317,0.07133
2506.54357,0.07106
2504.48396,0.07105
2502.42435,0.07104
2500.36474,0.07102
2498.30513,0.07107
2496.24552,0.07109
2494.18592,0.07092
2492.12631,0.07072
2490.06670,0.07076
2488.00709,0.07087
2485.94748,0.07075
2483.88787,0.07070
2481.82826,0.07091
2479.76866,0.07075
2477.70905,0.07006
2475.64944,0.06960
2473.58983,0.06941
2471.53022,0.06884
2469.47061,0.06862
2467.41100,0.06931
2465.35140,0.06983
2463.29179,0.06987
2461.23218,0.06996
2459.17257,0.06991
2457.11296,0.06951
2455.05335,0.06895
2452.99374,0.06867
2450.93414,0.06885
2448.87453,0.06901
2446.81492,0.06882
2444.75531,0.06840
2442.69570,0.06794
2440.63609,0.06761
2438.57649,0.06769
2436.51688,0.06806
2434.45727,0.06838
2432.39766,0.06843
2430.33805,0.06821
2428.27844,0.06789
2426.21883,0.06773
2424.15923,0.06785
2422.09962,0.06771
2420.04001,0.06716
2417.98040,0.06680
2415.92079,0.06679
2413.86118,0.06679
2411.80157,0.06661
2409.74197,0.06633
2407.68236,0.06600
2405.62275,0.06602
2403.56314,0.06627
2401.50353,0.06620
2399.44392,0.06615
2397.38431,0.06633
2395.32471,0.06620
2393.26510,0.06572
2391.20549,0.06544
2389.14588,0.06555
2387.08627,0.06560
2385.02666,0.06542
2382.96706,0.06524
2380.90745,0.06524
2378.84784,0.06527
2376.78823,0.06512
2374.72862,0.06507
2372.66901,0.06517
2370.60940,0.06501
2368.54980,0.06477
2366.49019,0.06479
2364.43058,0.06477
2362.37097,0.06410
2360.31136,0.06355
2358.25175,0.06409
2356.19214,0.06514
2354.13254,0.06586
2352.07293,0.06581
2350.01332,0.06533
2347.95371,0.06499
2345.89410,0.06483
2343.83449,0.06454
2341.77488,0.06422
2339.71528,0.06423
2337.65567,0.06426
2335.59606,0.06427
2333.53645,0.06431
2331.47684,0.06420
2329.41723,0.06430
2327.35763,0.06487
2325.29802,0.06562
2323.23841,0.06604
2321.17880,0.06592
2319.11919,0.06541
2317.05958,0.06463
2314.99997,0.06389
2312.94037,0.06358
2310.88076,0.06350
2308.82115,0.06303
2306.76154,0.06243
2304.70193,0.06231
2302.64232,0.06241
2300.58271,0.06236
2298.52311,0.06207
2296.46350,0.06181
2294.40389,0.06164
2292.34428,0.06135
2290.28467,0.06090
2288.22506,0.06052
2286.16545,0.06051
2284.10585,0.06054
2282.04624,0.06018
2279.98663,0.05959
2277.92702,0.05908
2275.86741,0.05889
2273.80780,0.05899
2271.74820,0.05893
2269.68859,0.05870
2267.62898,0.05821
2265.56937,0.05685
2263.50976,0.05569
2261.45015,0.05560
2259.39054,0.05585
2257.33094,0.05616
2255.27133,0.05604
2253.21172,0.05531
2251.15211,0.05498
2249.09250,0.05518
2247.03289,0.05530
2244.97328,0.05540
2242.91368,0.05547
2240.85407,0.05504
2238.79446,0.05452
2236.73485,0.05435
2234.67524,0.05401
2232.61563,0.05377
2230.55602,0.05395
2228.49642,0.05377
2226.43681,0.05323
2224.37720,0.05328
2222.31759,0.05346
2220.25798,0.05302
2218.19837,0.05271
2216.13877,0.05269
2214.07916,0.05216
2212.01955,0.05168
2209.95994,0.05216
2207.90033,0.05258
2205.84072,0.05213
2203.78111,0.05162
2201.72151,0.05134
2199.66190,0.05124
2197.60229,0.05154
2195.54268,0.05179
2193.48307,0.05135
2191.42346,0.05047
2189.36385,0.04962
2187.30425,0.04902
2185.24464,0.04846
2183.18503,0.04831
2181.12542,0.04870
2179.06581,0.04826
2177.00620,0.04651
2174.94659,0.04510
2172.88699,0.04545
2170.82738,0.04688
2168.76777,0.04772
2166.70816,0.04740
2164.64855,0.04650
2162.58894,0.04555
2160.52934,0.04465
2158.46973,0.04308
2156.41012,0.04175
2154.35051,0.04282
2152.29090,0.04520
2150.23129,0.04648
2148.17168,0.04650
2146.11208,0.04617
2144.05247,0.04627
2141.99286,0.04736
2139.93325,0.04843
2137.87364,0.04817
2135.81403,0.04711
2133.75442,0.04663
2131.69482,0.04712
2129.63521,0.04799
2127.57560,0.04889
2125.51599,0.04955
2123.45638,0.04959
2121.39677,0.04924
2119.33716,0.04884
2117.27756,0.04824
2115.21795,0.04772
2113.15834,0.04789
2111.09873,0.04812
2109.03912,0.04772
2106.97951,0.04759
2104.91991,0.04830
2102.86030,0.04902
2100.80069,0.04927
2098.74108,0.04969
2096.68147,0.04956
2094.62186,0.04830
2092.56225,0.04753
2090.50265,0.04765
2088.44304,0.04779
2086.38343,0.04811
2084.32382,0.04886
2082.26421,0.04916
2080.20460,0.04846
2078.14499,0.04728
2076.08539,0.04648
2074.02578,0.04644
2071.96617,0.04637
2069.90656,0.04608
2067.84695,0.04603
2065.78734,0.04594
2063.72773,0.04596
2061.66813,0.04643
2059.60852,0.04654
2057.54891,0.04550
2055.48930,0.04409
2053.42969,0.04343
2051.37008,0.04344
2049.31048,0.04343
2047.25087,0.04326
2045.19126,0.04299
2043.13165,0.04296
2041.07204,0.04274
2039.01243,0.04170
2036.95282,0.04058
2034.89322,0.03952
2032.83361,0.03864
2030.77400,0.03821
2028.71439,0.03779
2026.65478,0.03809
2024.59517,0.03941
2022.53556,0.03977
2020.47596,0.03857
2018.41635,0.03750
2016.35674,0.03735
2014.29713,0.03800
2012.23752,0.03865
2010.17791,0.03859
2008.11830,0.03806
2006.05870,0.03733
2003.99909,0.03673
2001.93948,0.03628
1999.87987,0.03653
1997.82026,0.03794
1995.76065,0.03920
1993.70105,0.03945
1991.64144,0.03896
1989.58183,0.03848
1987.52222,0.03886
1985.46261,0.03982
1983.40300,0.04032
1981.34339,0.03977
1979.28379,0.03869
1977.22418,0.03761
1975.16457,0.03685
1973.10496,0.03662
1971.04535,0.03686
1968.98574,0.03697
1966.92613,0.03652
1964.86653,0.03644
1962.80692,0.03678
1960.74731,0.03709
1958.68770,0.03753
1956.62809,0.03768
1954.56848,0.03742
1952.50887,0.03742
1950.44927,0.03829
1948.38966,0.03916
1946.33005,0.03897
1944.27044,0.03820
1942.21083,0.03748
1940.15122,0.03689
1938.09162,0.03647
1936.03201,0.03669
1933.97240,0.03761
1931.91279,0.03824
1929.85318,0.03813
1927.79357,0.03760
1925.73396,0.03695
1923.67436,0.03672
1921.61475,0.03711
1919.55514,0.03742
1917.49553,0.03728
1915.43592,0.03706
1913.37631,0.03710
1911.31670,0.03719
1909.25710,0.03698
1907.19749,0.03698
1905.13788,0.03738
1903.07827,0.03752
1901.01866,0.03715
1898.95905,0.03662
1896.89944,0.03629
1894.83984,0.03625
1892.78023,0.03662
1890.72062,0.03703
1888.66101,0.03675
1886.60140,0.03629
1884.54179,0.03627
1882.48219,0.03610
1880.42258,0.03554
1878.36297,0.03514
1876.30336,0.03507
1874.24375,0.03496
1872.18414,0.03485
1870.12453,0.03489
1868.06493,0.03470
1866.00532,0.03435
1863.94571,0.03433
1861.88610,0.03448
1859.82649,0.03452
1857.76688,0.03447
1855.70727,0.03436
1853.64767,0.03415
1851.58806,0.03372
1849.52845,0.03325
1847.46884,0.03302
1845.40923,0.03300
1843.34962,0.03284
1841.29002,0.03251
1839.23041,0.03226
1837.17080,0.03207
1835.11119,0.03193
1833.05158,0.03189
1830.99197,0.03198
1828.93236,0.03206
1826.87276,0.03185
1824.81315,0.03138
1822.75354,0.03093
1820.69393,0.03070
1818.63432,0.03060
1816.57471,0.03043
1814.51510,0.03025
1812.45550,0.03022
1810.39589,0.03025
1808.33628,0.02999
1806.27667,0.02960
1804.21706,0.02968
1802.15745,0.03000
1800.09784,0.02983
1798.03824,0.02913
1795.97863,0.02853
1793.91902,0.02835
1791.85941,0.02834
1789.79980,0.02815
1787.74019,0.02792
1785.68059,0.02787
1783.62098,0.02780
1781.56137,0.02759
1779.50176,0.02730
1777.44215,0.02692
1775.38254,0.02652
1773.32293,0.02628
1771.26333,0.02617
1769.20372,0.02589
1767.14411,0.02550
1765.08450,0.02525
1763.02489,0.02520
1760.96528,0.02523
1758.90567,0.02507
1756.84607,0.02460
1754.78646,0.02406
1752.72685,0.02376
1750.66724,0.02364
1748.60763,0.02343
1746.54802,0.02311
1744.48841,0.02283
1742.42881,0.02277
1740.36920,0.02275
1738.30959,0.02263
1736.24998,0.02266
1734.19037,0.02266
1732.13076,0.02236
1730.07116,0.02211
1728.01155,0.02204
1725.95194,0.02192
1723.89233,0.02184
1721.83272,0.02193
1719.77311,0.02229
1717.71350,0.02304
1715.65390,0.02418
1713.59429,0.02576
1711.53468,0.02806
1709.47507,0.03137
1707.41546,0.03645
1705.35585,0.04408
1703.29624,0.05228
1701.23664,0.06006
1699.17703,0.06638
1697.11742,0.06854
1695.05781,0.06846
1692.99820,0.06826
1690.93859,0.06856
1688.87898,0.06967
1686.81938,0.07131
1684.75977,0.07384
1682.70016,0.07711
1680.64055,0.07994
1678.58094,0.08270
1676.52133,0.08597
1674.46173,0.08988
1672.40212,0.09342
1670.34251,0.09711
1668.28290,0.10170
1666.22329,0.10594
1664.16368,0.11013
1662.10407,0.11514
1660.04447,0.12006
1657.98486,0.12433
1655.92525,0.12810
1653.86564,0.13321
1651.80603,0.13989
1649.74642,0.14408
1647.68681,0.14835
1645.62721,0.15425
1643.56760,0.15935
1641.50799,0.16398
1639.44838,0.16907
1637.38877,0.17505
1635.32916,0.18319
1633.26955,0.19111
1631.20995,0.19730
1629.15034,0.20376
1627.09073,0.21080
1625.03112,0.21727
1622.97151,0.22308
1620.91190,0.22720
1618.85230,0.22889
1616.79269,0.22860
1614.73308,0.22619
1612.67347,0.22215
1610.61386,0.21657
1608.55425,0.20927
1606.49464,0.20047
1604.43504,0.19072
1602.37543,0.18050
1600.31582,0.17059
1598.25621,0.16150
1596.19660,0.15319
1594.13699,0.14545
1592.07738,0.13820
1590.01778,0.13128
1587.95817,0.12488
1585.89856,0.11923
1583.83895,0.11429
1581.77934,0.11001
1579.71973,0.10678
1577.66012,0.10474
1575.60052,0.10382
1573.54091,0.10402
1571.48130,0.10518
1569.42169,0.10749
1567.36208,0.11027
1565.30247,0.11321
1563.24287,0.11627
1561.18326,0.11926
1559.12365,0.12370
1557.06404,0.12854
1555.00443,0.13193
1552.94482,0.13520
1550.88521,0.13834
1548.82561,0.14139
1546.76600,0.14434
1544.70639,0.14721
1542.64678,0.15028
1540.58717,0.15473
1538.52756,0.16055
1536.46795,0.16498
1534.40835,0.16949
1532.34874,0.17514
1530.28913,0.17995
1528.22952,0.18402
1526.16991,0.18831
1524.11030,0.19232
1522.05069,0.19677
1519.99109,0.20218
1517.93148,0.20772
1515.87187,0.21332
1513.81226,0.21736
1511.75265,0.21889
1509.69304,0.21867
1507.63344,0.21739
1505.57383,0.21523
1503.51422,0.21227
1501.45461,0.20858
1499.39500,0.20415
1497.33539,0.19893
1495.27578,0.19313
1493.21618,0.18746
1491.15657,0.18143
1489.09696,0.17442
1487.03735,0.16734
1484.97774,0.16075
1482.91813,0.15459
1480.85852,0.14894
1478.79892,0.14402
1476.73931,0.13952
1474.67970,0.13519
1472.62009,0.13144
1470.56048,0.12869
1468.50087,0.12651
1466.44126,0.12434
1464.38166,0.12240
1462.32205,0.12146
1460.26244,0.12161
1458.20283,0.12302
1456.14322,0.12621
1454.08361,0.12987
1452.02401,0.13357
1449.96440,0.13753
1447.90479,0.14136
1445.84518,0.14437
1443.78557,0.14607
1441.72596,0.14677
1439.66635,0.14662
1437.60675,0.14533
1435.54714,0.14249
1433.48753,0.13877
1431.42792,0.13466
1429.36831,0.13050
1427.30870,0.12696
1425.24909,0.12412
1423.18949,0.12189
1421.12988,0.12037
1419.07027,0.11964
1417.01066,0.11942
1414.95105,0.11931
1412.89144,0.11928
1410.83183,0.11942
1408.77223,0.11963
1406.71262,0.11973
1404.65301,0.11950
1402.59340,0.11878
1400.53379,0.11770
1398.47418,0.11659
1396.41458,0.11558
1394.35497,0.11464
1392.29536,0.11382
1390.23575,0.11308
1388.17614,0.11236
1386.11653,0.11174
1384.05692,0.11116
1381.99732,0.11048
1379.93771,0.10980
1377.87810,0.10916
1375.81849,0.10870
1373.75888,0.10866
1371.69927,0.10893
1369.63966,0.10922
1367.58006,0.10913
1365.52045,0.10834
1363.46084,0.10689
1361.40123,0.10500
1359.34162,0.10296
1357.28201,0.10110
1355.22240,0.09962
1353.16280,0.09846
1351.10319,0.09751
1349.04358,0.09694
1346.98397,0.09666
1344.92436,0.09648
1342.86475,0.09646
1340.80515,0.09653
1338.74554,0.09648
1336.68593,0.09632
1334.62632,0.09618
1332.56671,0.09590
1330.50710,0.09535
1328.44749,0.09465
1326.38789,0.09380
1324.32828,0.09277
1322.26867,0.09186
1320.20906,0.09118
1318.14945,0.09050
1316.08984,0.08981
1314.03023,0.08932
1311.97063,0.08898
1309.91102,0.08862
1307.85141,0.08817
1305.79180,0.08767
1303.73219,0.08717
1301.67258,0.08667
1299.61297,0.08614
1297.55337,0.08556
1295.49376,0.08502
1293.43415,0.08454
1291.37454,0.08408
1289.31493,0.08376
1287.25532,0.08370
1285.19572,0.08383
1283.13611,0.08404
1281.07650,0.08434
1279.01689,0.08493
1276.95728,0.08600
1274.89767,0.08755
1272.83806,0.08949
1270.77846,0.09174
1268.71885,0.09415
1266.65924,0.09645
1264.59963,0.09824
1262.54002,0.09941
1260.48041,0.10011
1258.42080,0.10041
1256.36120,0.10043
1254.30159,0.10041
1252.24198,0.10046
1250.18237,0.10059
1248.12276,0.10097
1246.06315,0.10174
1244.00354,0.10291
1241.94394,0.10439
1239.88433,0.10612
1237.82472,0.10808
1235.76511,0.11028
1233.70550,0.11258
1231.64589,0.11469
1229.58629,0.11630
1227.52668,0.11716
1225.46707,0.11727
1223.40746,0.11680
1221.34785,0.11596
1219.28824,0.11486
1217.22863,0.11351
1215.16903,0.11179
1213.10942,0.10966
1211.04981,0.10712
1208.99020,0.10431
1206.93059,0.10145
1204.87098,0.09862
1202.81137,0.09581
1200.75177,0.09306
1198.69216,0.09041
1196.63255,0.08802
1194.57294,0.08596
1192.51333,0.08416
1190.45372,0.08262
1188.39411,0.08130
1186.33451,0.08020
1184.27490,0.07937
1182.21529,0.07881
1180.15568,0.07857
1178.09607,0.07890
1176.03646,0.07985
1173.97686,0.08114
1171.91725,0.08242
1169.85764,0.08337
1167.79803,0.08390
1165.73842,0.08426
1163.67881,0.08450
1161.61920,0.08443
1159.55960,0.08406
1157.49999,0.08345
1155.44038,0.08250
1153.38077,0.08129
1151.32116,0.07995
1149.26155,0.07847
1147.20194,0.07688
1145.14234,0.07533
1143.08273,0.07391
1141.02312,0.07255
1138.96351,0.07134
1136.90390,0.07032
1134.84429,0.06943
1132.78468,0.06865
1130.72508,0.06792
1128.66547,0.06722
1126.60586,0.06656
1124.54625,0.06594
1122.48664,0.06538
1120.42703,0.06491
1118.36743,0.06449
1116.30782,0.06397
1114.24821,0.06340
1112.18860,0.06295
1110.12899,0.06278
1108.06938,0.06281
1106.00977,0.06289
1103.95017,0.06287
1101.89056,0.06264
1099.83095,0.06217
1097.77134,0.06157
1095.71173,0.06108
1093.65212,0.06074
1091.59251,0.06070
1089.53291,0.06112
1087.47330,0.06185
1085.41369,0.06279
1083.35408,0.06401
1081.29447,0.06546
1079.23486,0.06691
1077.17525,0.06828
1075.11565,0.06960
1073.05604,0.07076
1070.99643,0.07170
1068.93682,0.07241
1066.87721,0.07294
1064.81760,0.07326
1062.75800,0.07324
1060.69839,0.07298
1058.63878,0.07262
1056.57917,0.07215
1054.51956,0.07151
1052.45995,0.07074
1050.40034,0.07003
1048.34074,0.06947
1046.28113,0.06904
1044.22152,0.06865
1042.16191,0.06825
1040.10230,0.06777
1038.04269,0.06717
1035.98308,0.06636
1033.92348,0.06539
1031.86387,0.06438
1029.80426,0.06331
1027.74465,0.06227
1025.68504,0.06140
1023.62543,0.06059
1021.56582,0.05988
1019.50622,0.05945
1017.44661,0.05938
1015.38700,0.05952
1013.32739,0.05957
1011.26778,0.05946
1009.20817,0.05933
1007.14857,0.05934
1005.08896,0.05969
1003.02935,0.06027
1000.96974,0.06081
998.91013,0.06113
996.85052,0.06113
994.79091,0.06084
992.73131,0.06014
990.67170,0.05897
988.61209,0.05772
986.55248,0.05675
984.49287,0.05622
982.43326,0.05621
980.37365,0.05665
978.31405,0.05721
976.25444,0.05763
974.19483,0.05772
972.13522,0.05727
970.07561,0.05631
968.01600,0.05513
965.95639,0.05397
963.89679,0.05299
961.83718,0.05221
959.77757,0.05148
957.71796,0.05073
955.65835,0.05007
953.59874,0.04956
951.53914,0.04912
949.47953,0.04875
947.41992,0.04838
945.36031,0.04790
943.30070,0.04738
941.24109,0.04702
939.18148,0.04683
937.12188,0.04668
935.06227,0.04651
933.00266,0.04638
930.94305,0.04631
928.88344,0.04623
926.82383,0.04596
924.76422,0.04551
922.70462,0.04497
920.64501,0.04435
918.58540,0.04366
916.52579,0.04310
914.46618,0.04266
912.40657,0.04211
910.34696,0.04158
908.28736,0.04122
906.22775,0.04087
904.16814,0.04051
902.10853,0.04027
900.04892,0.04014
897.98931,0.03998
895.92971,0.03977
893.87010,0.03954
891.81049,0.03920
889.75088,0.03890
887.69127,0.03872
885.63166,0.03857
883.57205,0.03846
881.51245,0.03841
879.45284,0.03832
877.39323,0.03808
875.33362,0.03779
873.27401,0.03764
871.21440,0.03740
869.15479,0.03691
867.09519,0.03654
865.03558,0.03642
862.97597,0.03634
860.91636,0.03636
858.85675,0.03652
856.79714,0.03671
854.73753,0.03698
852.67793,0.03729
850.61832,0.03750
848.55871,0.03749
846.49910,0.03719
844.43949,0.03674
842.37988,0.03649
840.32028,0.03652
838.26067,0.03667
836.20106,0.03688
834.14145,0.03713
832.08184,0.03735
830.02223,0.03755
827.96262,0.03770
825.90302,0.03768
823.84341,0.03746
821.78380,0.03710
819.72419,0.03676
817.66458,0.03656
815.60497,0.03650
813.54536,0.03647
811.48576,0.03636
809.42615,0.03618
807.36654,0.03596
805.30693,0.03579
803.24732,0.03571
801.18771,0.03562
799.12810,0.03545
797.06850,0.03525
795.00889,0.03514
792.94928,0.03512
790.88967,0.03520
788.83006,0.03544
786.77045,0.03569
784.71085,0.03584
782.65124,0.03605
780.59163,0.03636
778.53202,0.03674
776.47241,0.03715
774.41280,0.03757
772.35319,0.03798
770.29359,0.03838
768.23398,0.03879
766.17437,0.03923
764.11476,0.03956
762.05515,0.03967
759.99554,0.03971
757.93593,0.03986
755.87633,0.04013
753.81672,0.04048
751.75711,0.04083
749.69750,0.04128
747.63789,0.04202
745.57828,0.04295
743.51867,0.04381
741.45907,0.04457
739.39946,0.04541
737.33985,0.04631
735.28024,0.04726
733.22063,0.04823
731.16102,0.04914
729.10142,0.05012
727.04181,0.05119
724.98220,0.05220
722.92259,0.05313
720.86298,0.05400
718.80337,0.05478
716.74376,0.05556
714.68416,0.05636
712.62455,0.05707
710.56494,0.05767
708.50533,0.05832
706.44572,0.05911
704.38611,0.05998
702.32650,0.06084
700.26690,0.06154
698.20729,0.06201
696.14768,0.06240
694.08807,0.06280
692.02846,0.06313
689.96885,0.06326
687.90924,0.06329
685.84964,0.06335
683.79003,0.06340
681.73042,0.06343
679.67081,0.06343
677.61120,0.06326
675.55159,0.06308
673.49199,0.06303
671.43238,0.06285
669.37277,0.06265
667.31316,0.06278
665.25355,0.06287
663.19394,0.06272
661.13433,0.06261
659.07473,0.06274
657.01512,0.06304
654.95551,0.06327
652.89590,0.06341
650.83629,0.06360
648.77668,0.06398
646.71707,0.06446
644.65747,0.06493
642.59786,0.06531
640.53825,0.06541
638.47864,0.06534
636.41903,0.06543
634.35942,0.06578
632.29981,0.06628
630.24021,0.06671
628.18060,0.06674
626.12099,0.06638
624.06138,0.06610
622.00177,0.06619
619.94216,0.06625
617.88256,0.06611
615.82295,0.06596
613.76334,0.06587
611.70373,0.06579
609.64412,0.06555
607.58451,0.06506
605.52490,0.06433
603.46530,0.06340
601.40569,0.06242
599.34608,0.06150
597.28647,0.06069
595.22686,0.05997
593.16725,0.05918
591.10764,0.05847
589.04804,0.05808
586.98843,0.05762
584.92882,0.05698
582.86921,0.05657
580.80960,0.05638
578.74999,0.05613
576.69039,0.05591
574.63078,0.05595
572.57117,0.05604
570.51156,0.05608
568.45195,0.05633
566.39234,0.05692
564.33273,0.05786
562.27313,0.05913
560.21352,0.06059
558.15391,0.06222
556.09430,0.06386
554.03469,0.06529
551.97508,0.06634
549.91547,0.06690
547.85587,0.06690
545.79626,0.06641
543.73665,0.06569
541.67704,0.06480
539.61743,0.06365
537.55782,0.06242
535.49821,0.06146
533.43861,0.06073
531.37900,0.05993
529.31939,0.05918
527.25978,0.05869
525.20017,0.05815
523.14056,0.05716
521.08096,0.05610
519.02135,0.05557
516.96174,0.05530
514.90213,0.05492
512.84252,0.05454
510.78291,0.05401
508.72330,0.05321
506.66370,0.05255
504.60409,0.05223
502.54448,0.05187
500.48487,0.05130
498.42526,0.05079
496.36565,0.05049
494.30604,0.05028
492.24644,0.05010
490.18683,0.04995
488.12722,0.04963
486.06761,0.04905
484.00800,0.04845
481.94839,0.04799
479.88878,0.04759
477.82918,0.04686
475.76957,0.04579
473.70996,0.04481
471.65035,0.04422
469.59074,0.04404
467.53113,0.04379
465.47153,0.04316
463.41192,0.04253
461.35231,0.04229
459.29270,0.04222
457.23309,0.04195
455.17348,0.04162
453.11387,0.04135
451.05427,0.04108
448.99466,0.04085
446.93505,0.04071
444.87544,0.04065
442.81583,0.04063
440.75622,0.04059
438.69661,0.04051
436.63701,0.04068
434.57740,0.04113
432.51779,0.04148
430.45818,0.04185
428.39857,0.04252
426.33896,0.04318
424.27935,0.04337
422.21975,0.04306
420.16014,0.04214
418.10053,0.04054
416.04092,0.03925
413.98131,0.03876
411.92170,0.03823
409.86210,0.03719
407.80249,0.03639
405.74288,0.03610
403.68327,0.03583
401.62366,0.03564
399.56405,0.03549
