3997.70013,-0.00086
3995.64052,-0.00057
3993.58092,0.00016
3991.52131,0.00019
3989.46170,-0.00026
3987.40209,-0.00065
3985.34248,-0.00096
3983.28287,-0.00091
3981.22327,-0.00056
3979.16366,-0.00036
3977.10405,-0.00070
3975.04444,-0.00124
3972.98483,-0.00067
3970.92522,0.00046
3968.86561,0.00036
3966.80601,-0.00051
3964.74640,-0.00092
3962.68679,-0.00092
3960.62718,-0.00076
3958.56757,-0.00079
3956.50796,-0.00123
3954.44835,-0.00160
3952.38875,-0.00150
3950.32914,-0.00101
3948.26953,-0.00063
3946.20992,-0.00052
3944.15031,-0.00025
3942.09070,0.00014
3940.03109,0.00023
3937.97149,-0.00009
3935.91188,-0.00033
3933.85227,-0.00065
3931.79266,-0.00128
3929.73305,-0.00134
3927.67344,-0.00097
3925.61384,-0.00082
3923.55423,-0.00059
3921.49462,-0.00013
3919.43501,0.00031
3917.37540,0.00025
3915.31579,-0.00040
3913.25618,-0.00101
3911.19658,-0.00111
3909.13697,-0.00074
3907.07736,-0.00043
3905.01775,-0.00050
3902.95814,-0.00058
3900.89853,-0.00045
3898.83892,-0.00064
3896.77932,-0.00113
3894.71971,-0.00130
3892.66010,-0.00130
3890.60049,-0.00135
3888.54088,-0.00124
3886.48127,-0.00090
3884.42166,-0.00068
3882.36206,-0.00090
3880.30245,-0.00101
3878.24284,-0.00087
3876.18323,-0.00096
3874.12362,-0.00114
3872.06401,-0.00111
3870.00441,-0.00105
3867.94480,-0.00109
3865.88519,-0.00127
3863.82558,-0.00149
3861.76597,-0.00123
3859.70636,-0.00055
3857.64675,-0.00020
3855.58715,-0.00088
3853.52754,-0.00192
3851.46793,-0.00110
3849.40832,0.00005
3847.34871,0.00026
3845.28910,-0.00007
3843.22949,-0.00046
3841.16989,-0.00024
3839.11028,0.00046
3837.05067,0.00069
3834.99106,0.00041
3832.93145,-0.00040
3830.87184,-0.00146
3828.81223,-0.00207
3826.75263,-0.00221
3824.69302,-0.00209
3822.63341,-0.00181
3820.57380,-0.00130
3818.51419,-0.00104
3816.45458,-0.00121
3814.39498,-0.00152
3812.33537,-0.00203
3810.27576,-0.00248
3808.21615,-0.00204
3806.15654,-0.00083
3804.09693,0.00009
3802.03732,0.00086
3799.97772,0.00111
3797.91811,0.00033
3795.85850,-0.00060
3793.79889,-0.00105
3791.73928,-0.00117
3789.67967,-0.00108
3787.62006,-0.00114
3785.56046,-0.00119
3783.50085,-0.00073
3781.44124,-0.00038
3779.38163,-0.00049
3777.32202,-0.00060
3775.26241,-0.00073
3773.20280,-0.00085
3771.14320,-0.00056
3769.08359,-0.00012
3767.02398,-0.00020
3764.96437,-0.00062
3762.90476,-0.00087
3760.84515,-0.00065
3758.78555,-0.00031
3756.72594,-0.00059
3754.66633,-0.00108
3752.60672,-0.00128
3750.54711,-0.00137
3748.48750,-0.00109
3746.42789,-0.00041
3744.36829,-0.00002
3742.30868,-0.00026
3740.24907,-0.00022
3738.18946,0.00029
3736.12985,0.00021
3734.07024,-0.00087
3732.01063,-0.00119
3729.95103,-0.00057
3727.89142,-0.00030
3725.83181,-0.00033
3723.77220,0.00005
3721.71259,0.00033
3719.65298,-0.00022
3717.59337,-0.00076
3715.53377,-0.00064
3713.47416,-0.00033
3711.41455,0.00032
3709.35494,0.00115
3707.29533,0.00117
3705.23572,0.00047
3703.17612,-0.00054
3701.11651,-0.00153
3699.05690,-0.00161
3696.99729,-0.00056
3694.93768,0.00036
3692.87807,0.00020
3690.81846,-0.00034
3688.75886,-0.00062
3686.69925,-0.00097
3684.63964,-0.00124
3682.58003,-0.00108
3680.52042,-0.00070
3678.46081,-0.00016
3676.40120,0.00059
3674.34160,0.00060
3672.28199,-0.00004
3670.22238,-0.00023
3668.16277,0.00018
3666.10316,0.00052
3664.04355,0.00038
3661.98394,0.00013
3659.92434,0.00019
3657.86473,0.00012
3655.80512,-0.00037
3653.74551,-0.00053
3651.68590,-0.00024
3649.62629,-0.00046
3647.56669,-0.00134
3645.50708,-0.00102
3643.44747,0.00005
3641.38786,0.00035
3639.32825,0.00019
3637.26864,0.00049
3635.20903,0.00085
3633.14943,0.00060
3631.08982,0.00006
3629.03021,-0.00045
3626.97060,-0.00077
3624.91099,-0.00071
3622.85138,-0.00042
3620.79177,-0.00004
3618.73217,-0.00002
3616.67256,-0.00042
3614.61295,-0.00054
3612.55334,-0.00026
3610.49373,0.00008
3608.43412,0.00044
3606.37451,0.00052
3604.31491,-0.00009
3602.25530,-0.00057
3600.19569,-0.00023
3598.13608,0.00015
3596.07647,0.00013
3594.01686,-0.00016
3591.95726,-0.00059
3589.89765,-0.00092
3587.83804,-0.00097
3585.77843,-0.00075
3583.71882,-0.00062
3581.65921,-0.00049
3579.59960,-0.00015
3577.54000,-0.00040
3575.48039,-0.00130
3573.42078,-0.00128
3571.36117,-0.00009
3569.30156,0.00083
3567.24195,0.00083
3565.18234,0.00018
3563.12274,-0.00045
3561.06313,-0.00059
3559.00352,-0.00031
3556.94391,0.00002
3554.88430,-0.00008
3552.82469,-0.00044
3550.76508,-0.00057
3548.70548,-0.00055
3546.64587,-0.00057
3544.58626,-0.00058
3542.52665,-0.00068
3540.46704,-0.00098
3538.40743,-0.00083
3536.34783,-0.00002
3534.28822,0.00046
3532.22861,0.00000
3530.16900,-0.00070
3528.10939,-0.00059
3526.04978,-0.00006
3523.99017,0.00019
3521.93057,0.00038
3519.87096,0.00036
3517.81135,-0.00009
3515.75174,-0.00068
3513.69213,-0.00139
3511.63252,-0.00210
3509.57291,-0.00248
3507.51331,-0.00227
3505.45370,-0.00128
3503.39409,-0.00006
3501.33448,0.00042
3499.27487,0.00023
3497.21526,0.00010
3495.15565,0.00057
3493.09605,0.00104
3491.03644,0.00060
3488.97683,-0.00003
3486.91722,0.00012
3484.85761,0.00046
3482.79800,0.00034
3480.73840,0.00009
3478.67879,0.00004
3476.61918,-0.00000
3474.55957,0.00006
3472.49996,0.00007
3470.44035,-0.00025
3468.38074,-0.00046
3466.32114,-0.00042
3464.26153,-0.00034
3462.20192,0.00002
3460.14231,0.00052
3458.08270,0.00074
3456.02309,0.00027
3453.96348,-0.00069
3451.90388,-0.00106
3449.84427,-0.00058
3447.78466,-0.00021
3445.72505,-0.00043
3443.66544,-0.00058
3441.60583,-0.00047
3439.54622,-0.00060
3437.48662,-0.00071
3435.42701,-0.00040
3433.36740,-0.00001
3431.30779,0.00015
3429.24818,0.00031
3427.18857,0.00024
3425.12897,-0.00034
3423.06936,-0.00075
3421.00975,-0.00067
3418.95014,-0.00057
3416.89053,-0.00058
3414.83092,-0.00045
3412.77131,-0.00025
3410.71171,-0.00014
3408.65210,-0.00028
3406.59249,-0.00048
3404.53288,-0.00035
3402.47327,-0.00003
3400.41366,0.00004
3398.35405,-0.00025
3396.29445,-0.00034
3394.23484,-0.00007
3392.17523,-0.00030
3390.11562,-0.00110
3388.05601,-0.00160
3385.99640,-0.00165
3383.93679,-0.00132
3381.87719,-0.00087
3379.81758,-0.00066
3377.75797,-0.00034
3375.69836,-0.00002
3373.63875,0.00011
3371.57914,0.00022
3369.51954,-0.00003
3367.45993,-0.00050
3365.40032,-0.00060
3363.34071,-0.00024
3361.28110,0.00021
3359.22149,0.00041
3357.16188,0.00004
3355.10228,-0.00064
3353.04267,-0.00094
3350.98306,-0.00093
3348.92345,-0.00094
3346.86384,-0.00067
3344.80423,0.00000
3342.74462,0.00065
3340.68502,0.00083
3338.62541,0.00072
3336.56580,0.00069
3334.50619,0.00049
3332.44658,-0.00007
3330.38697,-0.00032
3328.32736,-0.00014
3326.26776,-0.00008
3324.20815,0.00010
3322.14854,0.00080
3320.08893,0.00133
3318.02932,0.00116
3315.96971,0.00071
3313.91011,0.00067
3311.85050,0.00094
3309.79089,0.00094
3307.73128,0.00061
3305.67167,0.00027
3303.61206,0.00025
3301.55245,0.00067
3299.49285,0.00107
3297.43324,0.00115
3295.37363,0.00113
3293.31402,0.00115
3291.25441,0.00108
3289.19480,0.00096
3287.13519,0.00124
3285.07559,0.00175
3283.01598,0.00186
3280.95637,0.00156
3278.89676,0.00109
3276.83715,0.00058
3274.77754,0.00026
3272.71793,0.00034
3270.65833,0.00089
3268.59872,0.00145
3266.53911,0.00136
3264.47950,0.00110
3262.41989,0.00124
3260.36028,0.00145
3258.30068,0.00136
3256.24107,0.00103
3254.18146,0.00088
3252.12185,0.00114
3250.06224,0.00150
3248.00263,0.00141
3245.94302,0.00089
3243.88342,0.00059
3241.82381,0.00039
3239.76420,-0.00010
3237.70459,-0.00022
3235.64498,0.00025
3233.58537,0.00054
3231.52576,0.00040
3229.46616,0.00020
3227.40655,0.00033
3225.34694,0.00056
3223.28733,0.00046
3221.22772,0.00048
3219.16811,0.00061
3217.10850,0.00046
3215.04890,0.00053
3212.98929,0.00097
3210.92968,0.00108
3208.87007,0.00085
3206.81046,0.00071
3204.75085,0.00062
3202.69125,0.00055
3200.63164,0.00032
3198.57203,-0.00002
3196.51242,0.00029
3194.45281,0.00086
3192.39320,0.00075
3190.33359,0.00040
3188.27399,0.00027
3186.21438,0.00019
3184.15477,0.00005
3182.09516,-0.00002
3180.03555,0.00012
3177.97594,0.00005
3175.91633,-0.00038
3173.85673,-0.00054
3171.79712,-0.00032
3169.73751,-0.00027
3167.67790,-0.00031
3165.61829,0.00009
3163.55868,0.00060
3161.49907,0.00079
3159.43947,0.00073
3157.37986,0.00061
3155.32025,0.00068
3153.26064,0.00072
3151.20103,0.00060
3149.14142,0.00043
3147.08182,0.00017
3145.02221,0.00017
3142.96260,0.00049
3140.90299,0.00051
3138.84338,0.00036
3136.78377,0.00036
3134.72416,0.00048
3132.66456,0.00064
3130.60495,0.00060
3128.54534,0.00035
3126.48573,0.00028
3124.42612,0.00051
3122.36651,0.00034
3120.30690,-0.00035
3118.24730,-0.00055
3116.18769,-0.00017
3114.12808,0.00015
3112.06847,0.00037
3110.00886,0.00035
3107.94925,0.00016
3105.88965,0.00035
3103.83004,0.00062
3101.77043,0.00039
3099.71082,0.00003
3097.65121,-0.00008
3095.59160,-0.00007
3093.53199,0.00008
3091.47239,0.00018
3089.41278,0.00013
3087.35317,0.00011
3085.29356,-0.00009
3083.23395,-0.00038
3081.17434,-0.00076
3079.11473,-0.00105
3077.05513,-0.00061
3074.99552,0.00018
3072.93591,0.00054
3070.87630,0.00037
3068.81669,-0.00013
3066.75708,-0.00067
3064.69747,-0.00105
3062.63787,-0.00106
3060.57826,-0.00075
3058.51865,-0.00053
3056.45904,-0.00041
3054.39943,-0.00028
3052.33982,-0.00014
3050.28022,-0.00002
3048.22061,-0.00007
3046.16100,0.00009
3044.10139,0.00048
3042.04178,0.00052
3039.98217,0.00023
3037.92256,0.00004
3035.86296,0.00001
3033.80335,-0.00017
3031.74374,-0.00026
3029.68413,0.00015
3027.62452,0.00049
3025.56491,0.00030
3023.50530,-0.00022
3021.44570,-0.00057
3019.38609,-0.00044
3017.32648,-0.00001
3015.26687,0.00028
3013.20726,0.00026
3011.14765,0.00005
3009.08804,-0.00017
3007.02844,0.00005
3004.96883,0.00041
3002.90922,0.00023
3000.84961,-0.00020
2998.79000,-0.00038
2996.73039,-0.00036
2994.67079,-0.00043
2992.61118,-0.00057
2990.55157,-0.00046
2988.49196,-0.00022
2986.43235,-0.00029
2984.37274,-0.00062
2982.31313,-0.00068
2980.25353,-0.00025
2978.19392,0.00027
2976.13431,0.00034
2974.07470,0.00005
2972.01509,-0.00009
2969.95548,0.00005
2967.89587,0.00025
2965.83627,0.00031
2963.77666,0.00004
2961.71705,-0.00029
2959.65744,-0.00025
2957.59783,-0.00015
2955.53822,-0.00027
2953.47861,-0.00048
2951.41901,-0.00053
2949.35940,-0.00024
2947.29979,0.00004
2945.24018,0.00009
2943.18057,0.00012
2941.12096,0.00012
2939.06136,0.00011
2937.00175,0.00025
2934.94214,0.00035
2932.88253,0.00030
2930.82292,0.00032
2928.76331,0.00019
2926.70370,-0.00015
2924.64410,-0.00024
2922.58449,-0.00011
2920.52488,-0.00005
2918.46527,0.00002
2916.40566,0.00020
2914.34605,0.00023
2912.28644,0.00007
2910.22684,-0.00009
2908.16723,-0.00034
2906.10762,-0.00048
2904.04801,-0.00042
2901.98840,-0.00047
2899.92879,-0.00049
2897.86918,-0.00043
2895.80958,-0.00053
2893.74997,-0.00059
2891.69036,-0.00033
2889.63075,-0.00011
2887.57114,-0.00020
2885.51153,-0.00023
2883.45193,-0.00018
2881.39232,-0.00029
2879.33271,-0.00034
2877.27310,-0.00020
2875.21349,-0.00002
2873.15388,0.00010
2871.09427,-0.00001
2869.03467,-0.00031
2866.97506,-0.00030
2864.91545,-0.00009
2862.85584,-0.00015
2860.79623,-0.00023
2858.73662,-0.00015
2856.67701,-0.00008
2854.61741,-0.00016
2852.55780,-0.00030
2850.49819,-0.00028
2848.43858,-0.00029
2846.37897,-0.00045
2844.31936,-0.00058
2842.25975,-0.00063
2840.20015,-0.00055
2838.14054,-0.00039
2836.08093,-0.00030
2834.02132,-0.00019
2831.96171,-0.00005
2829.90210,0.00001
2827.84250,0.00008
2825.78289,0.00001
2823.72328,-0.00040
2821.66367,-0.00068
2819.60406,-0.00051
2817.54445,-0.00027
2815.48484,-0.00022
2813.42524,-0.00022
2811.36563,-0.00013
2809.30602,-0.00008
2807.24641,-0.00011
2805.18680,-0.00008
2803.12719,-0.00013
2801.06758,-0.00030
2799.00798,-0.00028
2796.94837,-0.00012
2794.88876,0.00005
2792.82915,0.00014
2790.76954,-0.00012
2788.70993,-0.00053
2786.65032,-0.00071
2784.59072,-0.00056
2782.53111,-0.00031
2780.47150,-0.00027
2778.41189,-0.00025
2776.35228,0.00002
2774.29267,0.00016
2772.23307,-0.00015
2770.17346,-0.00042
2768.11385,-0.00030
2766.05424,-0.00030
2763.99463,-0.00057
2761.93502,-0.00067
2759.87541,-0.00055
2757.81581,-0.00041
2755.75620,-0.00028
2753.69659,-0.00009
2751.63698,-0.00003
2749.57737,-0.00023
2747.51776,-0.00038
2745.45815,-0.00035
2743.39855,-0.00029
2741.33894,-0.00041
2739.27933,-0.00071
2737.21972,-0.00086
2735.16011,-0.00077
2733.10050,-0.00070
2731.04089,-0.00070
2728.98129,-0.00066
2726.92168,-0.00045
2724.86207,-0.00017
2722.80246,-0.00010
2720.74285,-0.00025
2718.68324,-0.00036
2716.62364,-0.00032
2714.56403,-0.00037
2712.50442,-0.00053
2710.44481,-0.00067
2708.38520,-0.00069
2706.32559,-0.00058
2704.26598,-0.00038
2702.20638,-0.00032
2700.14677,-0.00054
2698.08716,-0.00074
2696.02755,-0.00070
2693.96794,-0.00041
2691.90833,-0.00011
2689.84872,-0.00021
2687.78912,-0.00044
2685.72951,-0.00049
2683.66990,-0.00061
2681.61029,-0.00086
2679.55068,-0.00082
2677.49107,-0.00045
2675.43146,-0.00019
2673.37186,-0.00029
2671.31225,-0.00034
2669.25264,-0.00024
2667.19303,-0.00024
2665.13342,-0.00021
2663.07381,-0.00016
2661.01421,-0.00034
2658.95460,-0.00058
2656.89499,-0.00050
2654.83538,-0.00022
2652.77577,-0.00014
2650.71616,-0.00029
2648.65655,-0.00046
2646.59695,-0.00046
2644.53734,-0.00028
2642.47773,-0.00015
2640.41812,-0.00021
2638.35851,-0.00035
2636.29890,-0.00034
2634.23929,-0.00023
2632.17969,-0.00026
2630.12008,-0.00035
2628.06047,-0.00039
2626.00086,-0.00033
2623.94125,0.00009
2621.88164,0.00057
2619.82203,0.00062
2617.76243,0.00040
2615.70282,0.00035
2613.64321,0.00046
2611.58360,0.00028
2609.52399,-0.00009
2607.46438,-0.00023
2605.40478,-0.00008
2603.34517,0.00037
2601.28556,0.00065
2599.22595,0.00048
2597.16634,0.00016
2595.10673,-0.00007
2593.04712,-0.00027
2590.98752,-0.00023
2588.92791,0.00032
2586.86830,0.00073
2584.80869,0.00061
2582.74908,0.00036
2580.68947,0.00041
2578.62986,0.00061
2576.57026,0.00044
2574.51065,-0.00018
2572.45104,-0.00066
2570.39143,-0.00047
2568.33182,-0.00009
2566.27221,-0.00035
2564.21260,-0.00082
2562.15300,-0.00044
2560.09339,0.00046
2558.03378,0.00101
2555.97417,0.00121
2553.91456,0.00100
2551.85495,0.00026
2549.79535,-0.00051
2547.73574,-0.00056
2545.67613,0.00008
2543.61652,0.00048
2541.55691,0.00043
2539.49730,0.00043
2537.43769,0.00061
2535.37809,0.00059
2533.31848,0.00037
2531.25887,0.00044
2529.19926,0.00059
2527.13965,0.00032
2525.08004,-0.00019
2523.02043,-0.00026
2520.96083,0.00027
2518.90122,0.00050
2516.84161,0.00017
2514.78200,-0.00015
2512.72239,-0.00036
2510.66278,-0.00027
2508.60317,-0.00006
2506.54357,0.00006
2504.48396,0.00047
2502.42435,0.00076
2500.36474,0.00051
2498.30513,0.00043
2496.24552,0.00069
2494.18592,0.00078
2492.12631,0.00073
2490.06670,0.00058
2488.00709,0.00021
2485.94748,-0.00012
2483.88787,0.00002
2481.82826,0.00062
2479.76866,0.00094
2477.70905,0.00069
2475.64944,0.00054
2473.58983,0.00054
2471.53022,0.00019
2469.47061,-0.00006
2467.41100,0.00013
2465.35140,0.00008
2463.29179,-0.00008
2461.23218,0.00033
2459.17257,0.00093
2457.11296,0.00094
2455.05335,0.00040
2452.99374,0.00002
2450.93414,0.00021
2448.87453,0.00069
2446.81492,0.00077
2444.75531,0.00020
2442.69570,-0.00024
2440.63609,-0.00017
2438.57649,-0.00013
2436.51688,-0.00006
2434.45727,0.00025
2432.39766,0.00049
2430.33805,0.00025
2428.27844,-0.00021
2426.21883,-0.00047
2424.15923,-0.00037
2422.09962,-0.00018
2420.04001,-0.00030
2417.98040,-0.00055
2415.92079,-0.00065
2413.86118,-0.00068
2411.80157,-0.00070
2409.74197,-0.00051
2407.68236,-0.00017
2405.62275,0.00008
2403.56314,0.00013
2401.50353,-0.00018
2399.44392,-0.00056
2397.38431,-0.00039
2395.32471,0.00010
2393.26510,0.00012
2391.20549,-0.00021
2389.14588,-0.00028
2387.08627,-0.00019
2385.02666,-0.00024
2382.96706,-0.00026
2380.90745,-0.00008
2378.84784,-0.00009
2376.78823,-0.00036
2374.72862,-0.00021
2372.66901,0.00028
2370.60940,0.00008
2368.54980,-0.00045
2366.49019,-0.00009
2364.43058,0.00046
2362.37097,-0.00026
2360.31136,-0.00135
2358.25175,-0.00111
2356.19214,-0.00003
2354.13254,0.00039
2352.07293,-0.00020
2350.01332,-0.00086
2347.95371,-0.00074
2345.89410,-0.00013
2343.83449,0.00003
2341.77488,-0.00001
2339.71528,0.00033
2337.65567,0.00025
2335.59606,-0.00030
2333.53645,-0.00043
2331.47684,-0.00030
2329.41723,-0.00036
2327.35763,-0.00026
2325.29802,0.00020
2323.23841,0.00065
2321.17880,0.00059
2319.11919,0.00013
2317.05958,-0.00039
2314.99997,-0.00056
2312.94037,-0.00026
2310.88076,0.00004
2308.82115,0.00008
2306.76154,0.00007
2304.70193,0.00018
2302.64232,0.00032
2300.58271,0.00045
2298.52311,0.00046
2296.46350,0.00034
2294.40389,0.00027
2292.34428,0.00016
2290.28467,-0.00008
2288.22506,-0.00031
2286.16545,0.00004
2284.10585,0.00099
2282.04624,0.00148
2279.98663,0.00117
2277.92702,0.00105
2275.86741,0.00138
2273.80780,0.00145
2271.74820,0.00151
2269.68859,0.00187
2267.62898,0.00185
2265.56937,0.00105
2263.50976,0.00047
2261.45015,0.00056
2259.39054,0.00055
2257.33094,0.00044
2255.27133,0.00026
2253.21172,0.00009
2251.15211,0.00043
2249.09250,0.00100
2247.03289,0.00135
2244.97328,0.00156
2242.91368,0.00154
2240.85407,0.00117
2238.79446,0.00099
2236.73485,0.00124
2234.67524,0.00134
2232.61563,0.00122
2230.55602,0.00103
2228.49642,0.00087
2226.43681,0.00094
2224.37720,0.00145
2222.31759,0.00225
2220.25798,0.00243
2218.19837,0.00179
2216.13877,0.00161
2214.07916,0.00235
2212.01955,0.00282
2209.95994,0.00260
2207.90033,0.00250
2205.84072,0.00260
2203.78111,0.00247
2201.72151,0.00232
2199.66190,0.00259
2197.60229,0.00297
2195.54268,0.00271
2193.48307,0.00205
2191.42346,0.00155
2189.36385,0.00132
2187.30425,0.00153
2185.24464,0.00190
2183.18503,0.00241
2181.12542,0.00323
2179.06581,0.00365
2177.00620,0.00290
2174.94659,0.00226
2172.88699,0.00332
2170.82738,0.00500
2168.76777,0.00575
2166.70816,0.00520
2164.64855,0.00420
2162.58894,0.00410
2160.52934,0.00433
2158.46973,0.00324
2156.41012,0.00146
2154.35051,0.00121
2152.29090,0.00287
2150.23129,0.00452
2148.17168,0.00459
2146.11208,0.00352
2144.05247,0.00274
2141.99286,0.00256
2139.93325,0.00212
2137.87364,0.00161
2135.81403,0.00135
2133.75442,0.00114
2131.69482,0.00102
2129.63521,0.00091
2127.57560,0.00113
2125.51599,0.00173
2123.45638,0.00200
2121.39677,0.00189
2119.33716,0.00158
2117.27756,0.00084
2115.21795,0.00032
2113.15834,0.00067
2111.09873,0.00120
2109.03912,0.00128
2106.97951,0.00124
2104.91991,0.00141
2102.86030,0.00165
2100.80069,0.00167
2098.74108,0.00183
2096.68147,0.00205
2094.62186,0.00193
2092.56225,0.00198
2090.50265,0.00207
2088.44304,0.00173
2086.38343,0.00152
2084.32382,0.00197
2082.26421,0.00251
2080.20460,0.00243
2078.14499,0.00213
2076.08539,0.00188
2074.02578,0.00149
2071.96617,0.00112
2069.90656,0.00126
2067.84695,0.00192
2065.78734,0.00241
2063.72773,0.00256
2061.66813,0.00286
2059.60852,0.00301
2057.54891,0.00242
2055.48930,0.00162
2053.42969,0.00140
2051.37008,0.00183
2049.31048,0.00264
2047.25087,0.00292
2045.19126,0.00233
2043.13165,0.00209
2041.07204,0.00262
2039.01243,0.00288
2036.95282,0.00225
2034.89322,0.00155
2032.83361,0.00164
2030.77400,0.00236
2028.71439,0.00236
2026.65478,0.00128
2024.59517,0.00098
2022.53556,0.00173
2020.47596,0.00240
2018.41635,0.00257
2016.35674,0.00214
2014.29713,0.00149
2012.23752,0.00113
2010.17791,0.00141
2008.11830,0.00206
2006.05870,0.00229
2003.99909,0.00231
2001.93948,0.00247
1999.87987,0.00265
1997.82026,0.00311
1995.76065,0.00338
1993.70105,0.00302
1991.64144,0.00249
1989.58183,0.00192
1987.52222,0.00183
1985.46261,0.00277
1983.40300,0.00333
1981.34339,0.00236
1979.28379,0.00157
1977.22418,0.00188
1975.16457,0.00210
1973.10496,0.00191
1971.04535,0.00152
1968.98574,0.00101
1966.92613,0.00093
1964.86653,0.00173
1962.80692,0.00256
1960.74731,0.00297
1958.68770,0.00318
1956.62809,0.00298
1954.56848,0.00226
1952.50887,0.00152
1950.44927,0.00157
1948.38966,0.00219
1946.33005,0.00213
1944.27044,0.00116
1942.21083,0.00014
1940.15122,-0.00026
1938.09162,-0.00006
1936.03201,0.00044
1933.97240,0.00098
1931.91279,0.00112
1929.85318,0.00099
1927.79357,0.00081
1925.73396,0.00032
1923.67436,0.00003
1921.61475,0.00036
1919.55514,0.00050
1917.49553,0.00019
1915.43592,0.00007
1913.37631,0.00019
1911.31670,0.00014
1909.25710,-0.00001
1907.19749,0.00030
1905.13788,0.00083
1903.07827,0.00104
1901.01866,0.00106
1898.95905,0.00093
1896.89944,0.00054
1894.83984,0.00032
1892.78023,0.00060
1890.72062,0.00085
1888.66101,0.00052
1886.60140,0.00011
1884.54179,0.00031
1882.48219,0.00062
1880.42258,0.00040
1878.36297,0.00021
1876.30336,0.00046
1874.24375,0.00057
1872.18414,0.00027
1870.12453,-0.00019
1868.06493,-0.00055
1866.00532,-0.00068
1863.94571,-0.00062
1861.88610,-0.00050
1859.82649,-0.00042
1857.76688,-0.00017
1855.70727,0.00023
1853.64767,0.00030
1851.58806,0.00010
1849.52845,0.00007
1847.46884,0.00026
1845.40923,0.00041
1843.34962,0.00037
1841.29002,0.00026
1839.23041,-0.00004
1837.17080,-0.00038
1835.11119,-0.00029
1833.05158,0.00001
1830.99197,0.00017
1828.93236,0.00026
1826.87276,0.00016
1824.81315,-0.00016
1822.75354,-0.00051
1820.69393,-0.00063
1818.63432,-0.00053
1816.57471,-0.00051
1814.51510,-0.00074
1812.45550,-0.00083
1810.39589,-0.00056
1808.33628,-0.00036
1806.27667,-0.00042
1804.21706,-0.00031
1802.15745,-0.00009
1800.09784,-0.00016
1798.03824,-0.00045
1795.97863,-0.00072
1793.91902,-0.00081
1791.85941,-0.00071
1789.79980,-0.00066
1787.74019,-0.00066
1785.68059,-0.00054
1783.62098,-0.00038
1781.56137,-0.00026
1779.50176,-0.00018
1777.44215,-0.00027
1775.38254,-0.00036
1773.32293,-0.00031
1771.26333,-0.00028
1769.20372,-0.00050
1767.14411,-0.00080
1765.08450,-0.00086
1763.02489,-0.00070
1760.96528,-0.00054
1758.90567,-0.00057
1756.84607,-0.00061
1754.78646,-0.00056
1752.72685,-0.00051
1750.66724,-0.00042
1748.60763,-0.00039
1746.54802,-0.00053
1744.48841,-0.00064
1742.42881,-0.00065
1740.36920,-0.00064
1738.30959,-0.00057
1736.24998,-0.00052
1734.19037,-0.00068
1732.13076,-0.00094
1730.07116,-0.00100
1728.01155,-0.00091
1725.95194,-0.00086
1723.89233,-0.00083
1721.83272,-0.00065
1719.77311,-0.00037
1717.71350,-0.00025
1715.65390,-0.00049
1713.59429,-0.00067
1711.53468,-0.00061
1709.47507,-0.00050
1707.41546,-0.00043
1705.35585,-0.00032
1703.29624,-0.00017
1701.23664,-0.00010
1699.17703,-0.00014
1697.11742,-0.00017
1695.05781,-0.00005
1692.99820,0.00009
1690.93859,0.00005
1688.87898,-0.00001
1686.81938,-0.00001
1684.75977,-0.00006
1682.70016,0.00001
1680.64055,0.00021
1678.58094,0.00032
1676.52133,0.00033
1674.46173,0.00029
1672.40212,0.00022
1670.34251,0.00024
1668.28290,0.00036
1666.22329,0.00045
1664.16368,0.00060
1662.10407,0.00084
1660.04447,0.00096
1657.98486,0.00097
1655.92525,0.00093
1653.86564,0.00084
1651.80603,0.00091
1649.74642,0.00117
1647.68681,0.00141
1645.62721,0.00146
1643.56760,0.00139
1641.50799,0.00146
1639.44838,0.00163
1637.38877,0.00176
1635.32916,0.00180
1633.26955,0.00189
1631.20995,0.00199
1629.15034,0.00207
1627.09073,0.00228
1625.03112,0.00248
1622.97151,0.00239
1620.91190,0.00227
1618.85230,0.00238
1616.79269,0.00243
1614.73308,0.00220
1612.67347,0.00202
1610.61386,0.00198
1608.55425,0.00197
1606.49464,0.00193
1604.43504,0.00182
1602.37543,0.00159
1600.31582,0.00140
1598.25621,0.00128
1596.19660,0.00114
1594.13699,0.00101
1592.07738,0.00090
1590.01778,0.00079
1587.95817,0.00073
1585.89856,0.00074
1583.83895,0.00070
1581.77934,0.00059
1579.71973,0.00056
1577.66012,0.00058
1575.60052,0.00055
1573.54091,0.00059
1571.48130,0.00074
1569.42169,0.00078
1567.36208,0.00066
1565.30247,0.00064
1563.24287,0.00074
1561.18326,0.00083
1559.12365,0.00077
1557.06404,0.00064
1555.00443,0.00078
1552.94482,0.00102
1550.88521,0.00112
1548.82561,0.00120
1546.76600,0.00133
1544.70639,0.00140
1542.64678,0.00148
1540.58717,0.00166
1538.52756,0.00173
1536.46795,0.00167
1534.40835,0.00166
1532.34874,0.00175
1530.28913,0.00187
1528.22952,0.00203
1526.16991,0.00217
1524.11030,0.00217
1522.05069,0.00214
1519.99109,0.00217
1517.93148,0.00222
1515.87187,0.00234
1513.81226,0.00241
1511.75265,0.00241
1509.69304,0.00248
1507.63344,0.00252
1505.57383,0.00237
1503.51422,0.00230
1501.45461,0.00229
1499.39500,0.00222
1497.33539,0.00210
1495.27578,0.00197
1493.21618,0.00183
1491.15657,0.00173
1489.09696,0.00165
1487.03735,0.00152
1484.97774,0.00130
1482.91813,0.00113
1480.85852,0.00113
1478.79892,0.00122
1476.73931,0.00130
1474.67970,0.00130
1472.62009,0.00118
1470.56048,0.00101
1468.50087,0.00090
1466.44126,0.00082
1464.38166,0.00077
1462.32205,0.00081
1460.26244,0.00092
1458.20283,0.00095
1456.14322,0.00087
1454.08361,0.00090
1452.02401,0.00103
1449.96440,0.00111
1447.90479,0.00116
1445.84518,0.00128
1443.78557,0.00134
1441.72596,0.00125
1439.66635,0.00118
1437.60675,0.00117
1435.54714,0.00116
1433.48753,0.00113
1431.42792,0.00106
1429.36831,0.00095
1427.30870,0.00091
1425.24909,0.00099
1423.18949,0.00104
1421.12988,0.00106
1419.07027,0.00111
1417.01066,0.00108
1414.95105,0.00094
1412.89144,0.00089
1410.83183,0.00094
1408.77223,0.00104
1406.71262,0.00108
1404.65301,0.00101
1402.59340,0.00092
1400.53379,0.00088
1398.47418,0.00079
1396.41458,0.00073
1394.35497,0.00080
1392.29536,0.00089
1390.23575,0.00088
1388.17614,0.00080
1386.11653,0.00074
1384.05692,0.00081
1381.99732,0.00088
1379.93771,0.00083
1377.87810,0.00074
1375.81849,0.00071
1373.75888,0.00069
1371.69927,0.00072
1369.63966,0.00082
1367.58006,0.00079
1365.52045,0.00068
1363.46084,0.00066
1361.40123,0.00069
1359.34162,0.00068
1357.28201,0.00063
1355.22240,0.00063
1353.16280,0.00067
1351.10319,0.00074
1349.04358,0.00080
1346.98397,0.00075
1344.92436,0.00066
1342.86475,0.00068
1340.80515,0.00071
1338.74554,0.00063
1336.68593,0.00057
1334.62632,0.00058
1332.56671,0.00056
1330.50710,0.00055
1328.44749,0.00057
1326.38789,0.00051
1324.32828,0.00045
1322.26867,0.00056
1320.20906,0.00071
1318.14945,0.00068
1316.08984,0.00055
1314.03023,0.00055
1311.97063,0.00064
1309.91102,0.00067
1307.85141,0.00058
1305.79180,0.00047
1303.73219,0.00047
1301.67258,0.00057
1299.61297,0.00060
1297.55337,0.00050
1295.49376,0.00039
1293.43415,0.00040
1291.37454,0.00044
1289.31493,0.00041
1287.25532,0.00044
1285.19572,0.00053
1283.13611,0.00055
1281.07650,0.00049
1279.01689,0.00049
1276.95728,0.00059
1274.89767,0.00063
1272.83806,0.00059
1270.77846,0.00059
1268.71885,0.00071
1266.65924,0.00081
1264.59963,0.00079
1262.54002,0.00079
1260.48041,0.00082
1258.42080,0.00082
1256.36120,0.00088
1254.30159,0.00100
1252.24198,0.00103
1250.18237,0.00094
1248.12276,0.00087
1246.06315,0.00086
1244.00354,0.00091
1241.94394,0.00095
1239.88433,0.00097
1237.82472,0.00102
1235.76511,0.00108
1233.70550,0.00104
1231.64589,0.00098
1229.58629,0.00099
1227.52668,0.00108
1225.46707,0.00116
1223.40746,0.00116
1221.34785,0.00114
1219.28824,0.00113
1217.22863,0.00112
1215.16903,0.00115
1213.10942,0.00116
1211.04981,0.00104
1208.99020,0.00084
1206.93059,0.00072
1204.87098,0.00064
1202.81137,0.00064
1200.75177,0.00075
1198.69216,0.00080
1196.63255,0.00074
1194.57294,0.00067
1192.51333,0.00063
1190.45372,0.00056
1188.39411,0.00051
1186.33451,0.00057
1184.27490,0.00064
1182.21529,0.00062
1180.15568,0.00059
1178.09607,0.00064
1176.03646,0.00069
1173.97686,0.00074
1171.91725,0.00079
1169.85764,0.00076
1167.79803,0.00063
1165.73842,0.00055
1163.67881,0.00059
1161.61920,0.00071
1159.55960,0.00078
1157.49999,0.00077
1155.44038,0.00080
1153.38077,0.00087
1151.32116,0.00090
1149.26155,0.00078
1147.20194,0.00055
1145.14234,0.00043
1143.08273,0.00046
1141.02312,0.00052
1138.96351,0.00058
1136.90390,0.00065
1134.84429,0.00064
1132.78468,0.00056
1130.72508,0.00044
1128.66547,0.00037
1126.60586,0.00039
1124.54625,0.00039
1122.48664,0.00036
1120.42703,0.00042
1118.36743,0.00050
1116.30782,0.00048
1114.24821,0.00046
1112.18860,0.00046
1110.12899,0.00044
1108.06938,0.00046
1106.00977,0.00054
1103.95017,0.00057
1101.89056,0.00049
1099.83095,0.00035
1097.77134,0.00022
1095.71173,0.00019
1093.65212,0.00021
1091.59251,0.00026
1089.53291,0.00034
1087.47330,0.00034
1085.41369,0.00034
1083.35408,0.00044
1081.29447,0.00051
1079.23486,0.00043
1077.17525,0.00033
1075.11565,0.00036
1073.05604,0.00046
1070.99643,0.00049
1068.93682,0.00054
1066.87721,0.00071
1064.81760,0.00085
1062.75800,0.00076
1060.69839,0.00061
1058.63878,0.00054
1056.57917,0.00052
1054.51956,0.00055
1052.45995,0.00063
1050.40034,0.00068
1048.34074,0.00064
1046.28113,0.00062
1044.22152,0.00060
1042.16191,0.00060
1040.10230,0.00063
1038.04269,0.00064
1035.98308,0.00059
1033.92348,0.00055
1031.86387,0.00055
1029.80426,0.00053
1027.74465,0.00056
1025.68504,0.00062
1023.62543,0.00059
1021.56582,0.00052
1019.50622,0.00047
1017.44661,0.00049
1015.38700,0.00053
1013.32739,0.00056
1011.26778,0.00063
1009.20817,0.00065
1007.14857,0.00058
1005.08896,0.00059
1003.02935,0.00062
1000.96974,0.00056
998.91013,0.00048
996.85052,0.00047
994.79091,0.00052
992.73131,0.00055
990.67170,0.00051
988.61209,0.00048
986.55248,0.00050
984.49287,0.00052
982.43326,0.00052
980.37365,0.00054
978.31405,0.00057
976.25444,0.00067
974.19483,0.00077
972.13522,0.00074
970.07561,0.00065
968.01600,0.00061
965.95639,0.00060
963.89679,0.00059
961.83718,0.00061
959.77757,0.00062
957.71796,0.00059
955.65835,0.00055
953.59874,0.00052
951.53914,0.00050
949.47953,0.00051
947.41992,0.00056
945.36031,0.00049
943.30070,0.00036
941.24109,0.00038
939.18148,0.00049
937.12188,0.00056
935.06227,0.00060
933.00266,0.00059
930.94305,0.00053
928.88344,0.00049
926.82383,0.00044
924.76422,0.00042
922.70462,0.00046
920.64501,0.00044
918.58540,0.00034
916.52579,0.00027
914.46618,0.00022
912.40657,0.00016
910.34696,0.00033
908.28736,0.00055
906.22775,0.00050
904.16814,0.00031
902.10853,0.00026
900.04892,0.00030
897.98931,0.00032
895.92971,0.00035
893.87010,0.00032
891.81049,0.00021
889.75088,0.00022
887.69127,0.00029
885.63166,0.00030
883.57205,0.00032
881.51245,0.00039
879.45284,0.00044
877.39323,0.00042
875.33362,0.00037
873.27401,0.00043
871.21440,0.00049
869.15479,0.00046
867.09519,0.00050
865.03558,0.00060
862.97597,0.00059
860.91636,0.00057
858.85675,0.00059
856.79714,0.00045
854.73753,0.00024
852.67793,0.00017
850.61832,0.00021
848.55871,0.00030
846.49910,0.00036
844.43949,0.00030
842.37988,0.00030
840.32028,0.00037
838.26067,0.00034
836.20106,0.00026
834.14145,0.00032
832.08184,0.00042
830.02223,0.00039
827.96262,0.00031
825.90302,0.00031
823.84341,0.00034
821.78380,0.00033
819.72419,0.00033
817.66458,0.00038
815.60497,0.00049
813.54536,0.00059
811.48576,0.00057
809.42615,0.00046
807.36654,0.00038
805.30693,0.00040
803.24732,0.00051
801.18771,0.00050
799.12810,0.00039
797.06850,0.00036
795.00889,0.00039
792.94928,0.00040
790.88967,0.00041
788.83006,0.00037
786.77045,0.00030
784.71085,0.00033
782.65124,0.00042
780.59163,0.00048
778.53202,0.00052
776.47241,0.00056
774.41280,0.00056
772.35319,0.00055
770.29359,0.00053
768.23398,0.00050
766.17437,0.00049
764.11476,0.00052
762.05515,0.00058
759.99554,0.00053
757.93593,0.00039
755.87633,0.00039
753.81672,0.00061
751.75711,0.00076
749.69750,0.00072
747.63789,0.00074
745.57828,0.00085
743.51867,0.00079
741.45907,0.00065
739.39946,0.00068
737.33985,0.00081
735.28024,0.00094
733.22063,0.00103
731.16102,0.00102
729.10142,0.00096
727.04181,0.00088
724.98220,0.00085
722.92259,0.00091
720.86298,0.00096
718.80337,0.00099
716.74376,0.00110
714.68416,0.00120
712.62455,0.00110
710.56494,0.00090
708.50533,0.00094
706.44572,0.00119
704.38611,0.00131
702.32650,0.00117
700.26690,0.00106
698.20729,0.00112
696.14768,0.00123
694.08807,0.00133
692.02846,0.00133
689.96885,0.00115
687.90924,0.00102
685.84964,0.00105
683.79003,0.00117
681.73042,0.00127
679.67081,0.00124
677.61120,0.00112
675.55159,0.00114
673.49199,0.00118
671.43238,0.00111
669.37277,0.00121
667.31316,0.00151
665.25355,0.00146
663.19394,0.00122
661.13433,0.00111
659.07473,0.00113
657.01512,0.00115
654.95551,0.00122
652.89590,0.00133
650.83629,0.00135
648.77668,0.00129
646.71707,0.00123
644.65747,0.00118
642.59786,0.00120
640.53825,0.00112
638.47864,0.00095
636.41903,0.00097
634.35942,0.00120
632.29981,0.00148
630.24021,0.00173
628.18060,0.00178
626.12099,0.00162
624.06138,0.00146
622.00177,0.00146
619.94216,0.00149
617.88256,0.00147
615.82295,0.00151
613.76334,0.00152
611.70373,0.00149
609.64412,0.00140
607.58451,0.00121
605.52490,0.00102
603.46530,0.00092
601.40569,0.00083
599.34608,0.00083
597.28647,0.00101
595.22686,0.00123
593.16725,0.00128
591.10764,0.00125
589.04804,0.00129
586.98843,0.00121
584.92882,0.00118
582.86921,0.00145
580.80960,0.00163
578.74999,0.00141
576.69039,0.00115
574.63078,0.00117
572.57117,0.00123
570.51156,0.00118
568.45195,0.00130
566.39234,0.00147
564.33273,0.00141
562.27313,0.00125
560.21352,0.00126
558.15391,0.00149
556.09430,0.00162
554.03469,0.00154
551.97508,0.00156
549.91547,0.00163
547.85587,0.00160
545.79626,0.00167
543.73665,0.00186
541.67704,0.00197
539.61743,0.00195
537.55782,0.00186
535.49821,0.00174
533.43861,0.00160
531.37900,0.00145
529.31939,0.00139
527.25978,0.00144
525.20017,0.00151
523.14056,0.00146
521.08096,0.00133
519.02135,0.00134
516.96174,0.00134
514.90213,0.00129
512.84252,0.00137
510.78291,0.00143
508.72330,0.00124
506.66370,0.00104
504.60409,0.00106
502.54448,0.00114
500.48487,0.00114
498.42526,0.00116
496.36565,0.00130
494.30604,0.00148
492.24644,0.00159
490.18683,0.00162
488.12722,0.00146
486.06761,0.00128
484.00800,0.00136
481.94839,0.00150
479.88878,0.00140
477.82918,0.00105
475.76957,0.00079
473.70996,0.00080
471.65035,0.00096
469.59074,0.00114
467.53113,0.00119
465.47153,0.00108
463.41192,0.00110
461.35231,0.00130
459.29270,0.00132
457.23309,0.00104
455.17348,0.00080
453.11387,0.00079
451.05427,0.00093
448.99466,0.00104
446.93505,0.00113
444.87544,0.00143
442.81583,0.00174
440.75622,0.00168
438.69661,0.00139
436.63701,0.00135
434.57740,0.00134
432.51779,0.00105
430.45818,0.00096
428.39857,0.00117
426.33896,0.00126
424.27935,0.00129
422.21975,0.00120
420.16014,0.00095
418.10053,0.00093
416.04092,0.00114
413.98131,0.00136
411.92170,0.00142
409.86210,0.00137
407.80249,0.00137
405.74288,0.00137
403.68327,0.00146
401.62366,0.00136
399.56405,0.00104
