4096.56134,0.04393
4094.50173,0.04390
4092.44213,0.04372
4090.38252,0.04391
4088.32291,0.04405
4086.26330,0.04357
4084.20369,0.04306
4082.14408,0.04323
4080.08447,0.04399
4078.02487,0.04466
4075.96526,0.04480
4073.90565,0.04470
4071.84604,0.04501
4069.78643,0.04542
4067.72682,0.04506
4065.66721,0.04455
4063.60761,0.04438
4061.54800,0.04384
4059.48839,0.04278
4057.42878,0.04194
4055.36917,0.04173
4053.30956,0.04200
4051.24995,0.04288
4049.19035,0.04341
4047.13074,0.04290
4045.07113,0.04253
4043.01152,0.04225
4040.95191,0.04181
4038.89230,0.04212
4036.83270,0.04287
4034.77309,0.04321
4032.71348,0.04307
4030.65387,0.04296
4028.59426,0.04332
4026.53465,0.04368
4024.47504,0.04371
4022.41544,0.04372
4020.35583,0.04341
4018.29622,0.04297
4016.23661,0.04299
4014.17700,0.04303
4012.11739,0.04271
4010.05778,0.04251
4007.99818,0.04266
4005.93857,0.04261
4003.87896,0.04224
4001.81935,0.04207
3999.75974,0.04220
3997.70013,0.04229
3995.64052,0.04235
3993.58092,0.04271
3991.52131,0.04286
3989.46170,0.04259
3987.40209,0.04245
3985.34248,0.04241
3983.28287,0.04205
3981.22327,0.04153
3979.16366,0.04124
3977.10405,0.04150
3975.04444,0.04250
3972.98483,0.04314
3970.92522,0.04280
3968.86561,0.04257
3966.80601,0.04313
3964.74640,0.04361
3962.68679,0.04300
3960.62718,0.04227
3958.56757,0.04226
3956.50796,0.04267
3954.44835,0.04306
3952.38875,0.04280
3950.32914,0.04191
3948.26953,0.04176
3946.20992,0.04248
3944.15031,0.04200
3942.09070,0.04166
3940.03109,0.04241
3937.97149,0.04230
3935.91188,0.04149
3933.85227,0.04060
3931.79266,0.04086
3929.73305,0.04237
3927.67344,0.04327
3925.61384,0.04299
3923.55423,0.04283
3921.49462,0.04235
3919.43501,0.04114
3917.37540,0.04070
3915.31579,0.04158
3913.25618,0.04182
3911.19658,0.04140
3909.13697,0.04200
3907.07736,0.04221
3905.01775,0.04120
3902.95814,0.04093
3900.89853,0.04086
3898.83892,0.04149
3896.77932,0.04348
3894.71971,0.04308
3892.66010,0.04012
3890.60049,0.04016
3888.54088,0.04181
3886.48127,0.04025
3884.42166,0.04062
3882.36206,0.04141
3880.30245,0.04100
3878.24284,0.04279
3876.18323,0.04235
3874.12362,0.04044
3872.06401,0.03954
3870.00441,0.03939
3867.94480,0.04216
3865.88519,0.04210
3863.82558,0.04025
3861.76597,0.04057
3859.70636,0.04219
3857.64675,0.04267
3855.58715,0.03843
3853.52754,0.03531
3851.46793,0.04037
3849.40832,0.04382
3847.34871,0.04275
3845.28910,0.04096
3843.22949,0.04073
3841.16989,0.04038
3839.11028,0.03788
3837.05067,0.03757
3834.99106,0.03994
3832.93145,0.04068
3830.87184,0.04060
3828.81223,0.04034
3826.75263,0.04022
3824.69302,0.04097
3822.63341,0.03919
3820.57380,0.03935
3818.51419,0.04119
3816.45458,0.03875
3814.39498,0.03936
3812.33537,0.04184
3810.27576,0.04145
3808.21615,0.03894
3806.15654,0.03903
3804.09693,0.03967
3802.03732,0.03707
3799.97772,0.03856
3797.91811,0.04036
3795.85850,0.03992
3793.79889,0.04039
3791.73928,0.04003
3789.67967,0.03938
3787.62006,0.03904
3785.56046,0.03871
3783.50085,0.03912
3781.44124,0.03869
3779.38163,0.03779
3777.32202,0.03916
3775.26241,0.04048
3773.20280,0.04012
3771.14320,0.03861
3769.08359,0.03846
3767.02398,0.03879
3764.96437,0.03878
3762.90476,0.03916
3760.84515,0.03773
3758.78555,0.03765
3756.72594,0.04060
3754.66633,0.04164
3752.60672,0.03856
3750.54711,0.03744
3748.48750,0.04097
3746.42789,0.03930
3744.36829,0.03498
3742.30868,0.03870
3740.24907,0.04095
3738.18946,0.03774
3736.12985,0.03442
3734.07024,0.03458
3732.01063,0.03667
3729.95103,0.03894
3727.89142,0.03858
3725.83181,0.03746
3723.77220,0.03731
3721.71259,0.03736
3719.65298,0.03766
3717.59337,0.03819
3715.53377,0.03785
3713.47416,0.03516
3711.41455,0.03350
3709.35494,0.03548
3707.29533,0.03823
3705.23572,0.03897
3703.17612,0.03728
3701.11651,0.03631
3699.05690,0.03703
3696.99729,0.03719
3694.93768,0.03753
3692.87807,0.03749
3690.81846,0.03571
3688.75886,0.03466
3686.69925,0.03695
3684.63964,0.03858
3682.58003,0.03820
3680.52042,0.03795
3678.46081,0.03696
3676.40120,0.03457
3674.34160,0.03690
3672.28199,0.03889
3670.22238,0.03603
3668.16277,0.03665
3666.10316,0.03797
3664.04355,0.03697
3661.98394,0.03644
3659.92434,0.03682
3657.86473,0.03614
3655.80512,0.03664
3653.74551,0.03846
3651.68590,0.03566
3649.62629,0.03237
3647.56669,0.03459
3645.50708,0.03821
3643.44747,0.03851
3641.38786,0.03720
3639.32825,0.03725
3637.26864,0.03795
3635.20903,0.03805
3633.14943,0.03800
3631.08982,0.03577
3629.03021,0.03316
3626.97060,0.03650
3624.91099,0.03987
3622.85138,0.03961
3620.79177,0.03733
3618.73217,0.03637
3616.67256,0.03770
3614.61295,0.03752
3612.55334,0.03689
3610.49373,0.03701
3608.43412,0.03723
3606.37451,0.03849
3604.31491,0.03880
3602.25530,0.03761
3600.19569,0.03720
3598.13608,0.03751
3596.07647,0.03737
3594.01686,0.03807
3591.95726,0.03985
3589.89765,0.03981
3587.83804,0.03864
3585.77843,0.03956
3583.71882,0.04048
3581.65921,0.03999
3579.59960,0.03983
3577.54000,0.04033
3575.48039,0.04053
3573.42078,0.04072
3571.36117,0.04108
3569.30156,0.04005
3567.24195,0.03888
3565.18234,0.04022
3563.12274,0.04129
3561.06313,0.04063
3559.00352,0.04031
3556.94391,0.04115
3554.88430,0.04199
3552.82469,0.04238
3550.76508,0.04308
3548.70548,0.04313
3546.64587,0.04232
3544.58626,0.04252
3542.52665,0.04334
3540.46704,0.04357
3538.40743,0.04338
3536.34783,0.04366
3534.28822,0.04451
3532.22861,0.04466
3530.16900,0.04402
3528.10939,0.04352
3526.04978,0.04343
3523.99017,0.04346
3521.93057,0.04409
3519.87096,0.04507
3517.81135,0.04564
3515.75174,0.04584
3513.69213,0.04581
3511.63252,0.04560
3509.57291,0.04558
3507.51331,0.04619
3505.45370,0.04629
3503.39409,0.04572
3501.33448,0.04558
3499.27487,0.04528
3497.21526,0.04473
3495.15565,0.04467
3493.09605,0.04510
3491.03644,0.04594
3488.97683,0.04679
3486.91722,0.04717
3484.85761,0.04699
3482.79800,0.04642
3480.73840,0.04653
3478.67879,0.04704
3476.61918,0.04684
3474.55957,0.04656
3472.49996,0.04697
3470.44035,0.04730
3468.38074,0.04703
3466.32114,0.04696
3464.26153,0.04724
3462.20192,0.04727
3460.14231,0.04726
3458.08270,0.04751
3456.02309,0.04798
3453.96348,0.04807
3451.90388,0.04779
3449.84427,0.04772
3447.78466,0.04775
3445.72505,0.04818
3443.66544,0.04852
3441.60583,0.04848
3439.54622,0.04840
3437.48662,0.04843
3435.42701,0.04886
3433.36740,0.04918
3431.30779,0.04909
3429.24818,0.04888
3427.18857,0.04897
3425.12897,0.04928
3423.06936,0.04954
3421.00975,0.05003
3418.95014,0.05075
3416.89053,0.05108
3414.83092,0.05109
3412.77131,0.05110
3410.71171,0.05123
3408.65210,0.05141
3406.59249,0.05132
3404.53288,0.05111
3402.47327,0.05131
3400.41366,0.05185
3398.35405,0.05265
3396.29445,0.05367
3394.23484,0.05396
3392.17523,0.05362
3390.11562,0.05363
3388.05601,0.05377
3385.99640,0.05388
3383.93679,0.05420
3381.87719,0.05450
3379.81758,0.05446
3377.75797,0.05438
3375.69836,0.05455
3373.63875,0.05486
3371.57914,0.05515
3369.51954,0.05524
3367.45993,0.05515
3365.40032,0.05559
3363.34071,0.05657
3361.28110,0.05738
3359.22149,0.05784
3357.16188,0.05822
3355.10228,0.05864
3353.04267,0.05890
3350.98306,0.05919
3348.92345,0.05999
3346.86384,0.06097
3344.80423,0.06152
3342.74462,0.06179
3340.68502,0.06246
3338.62541,0.06361
3336.56580,0.06471
3334.50619,0.06586
3332.44658,0.06749
3330.38697,0.06928
3328.32736,0.07081
3326.26776,0.07222
3324.20815,0.07396
3322.14854,0.07589
3320.08893,0.07748
3318.02932,0.07894
3315.96971,0.08072
3313.91011,0.08299
3311.85050,0.08558
3309.79089,0.08795
3307.73128,0.09004
3305.67167,0.09209
3303.61206,0.09427
3301.55245,0.09671
3299.49285,0.09922
3297.43324,0.10180
3295.37363,0.10410
3293.31402,0.10571
3291.25441,0.10733
3289.19480,0.10969
3287.13519,0.11234
3285.07559,0.11459
3283.01598,0.11629
3280.95637,0.11724
3278.89676,0.11740
3276.83715,0.11743
3274.77754,0.11781
3272.71793,0.11844
3270.65833,0.11859
3268.59872,0.11785
3266.53911,0.11705
3264.47950,0.11645
3262.41989,0.11535
3260.36028,0.11388
3258.30068,0.11238
3256.24107,0.11059
3254.18146,0.10870
3252.12185,0.10695
3250.06224,0.10505
3248.00263,0.10334
3245.94302,0.10253
3243.88342,0.10230
3241.82381,0.10138
3239.76420,0.09970
3237.70459,0.09826
3235.64498,0.09735
3233.58537,0.09663
3231.52576,0.09567
3229.46616,0.09438
3227.40655,0.09318
3225.34694,0.09240
3223.28733,0.09169
3221.22772,0.09089
3219.16811,0.09028
3217.10850,0.08976
3215.04890,0.08886
3212.98929,0.08758
3210.92968,0.08621
3208.87007,0.08500
3206.81046,0.08398
3204.75085,0.08323
3202.69125,0.08281
3200.63164,0.08240
3198.57203,0.08184
3196.51242,0.08118
3194.45281,0.08010
3192.39320,0.07901
3190.33359,0.07836
3188.27399,0.07776
3186.21438,0.07702
3184.15477,0.07626
3182.09516,0.07544
3180.03555,0.07465
3177.97594,0.07403
3175.91633,0.07364
3173.85673,0.07350
3171.79712,0.07335
3169.73751,0.07260
3167.67790,0.07154
3165.61829,0.07090
3163.55868,0.07039
3161.49907,0.06963
3159.43947,0.06883
3157.37986,0.06823
3155.32025,0.06774
3153.26064,0.06719
3151.20103,0.06658
3149.14142,0.06604
3147.08182,0.06583
3145.02221,0.06586
3142.96260,0.06565
3140.90299,0.06509
3138.84338,0.06447
3136.78377,0.06393
3134.72416,0.06350
3132.66456,0.06353
3130.60495,0.06379
3128.54534,0.06366
3126.48573,0.06318
3124.42612,0.06273
3122.36651,0.06275
3120.30690,0.06307
3118.24730,0.06288
3116.18769,0.06235
3114.12808,0.06227
3112.06847,0.06253
3110.00886,0.06262
3107.94925,0.06262
3105.88965,0.06274
3103.83004,0.06284
3101.77043,0.06287
3099.71082,0.06292
3097.65121,0.06285
3095.59160,0.06258
3093.53199,0.06255
3091.47239,0.06290
3089.41278,0.06351
3087.35317,0.06401
3085.29356,0.06405
3083.23395,0.06389
3081.17434,0.06393
3079.11473,0.06432
3077.05513,0.06471
3074.99552,0.06467
3072.93591,0.06438
3070.87630,0.06431
3068.81669,0.06446
3066.75708,0.06442
3064.69747,0.06429
3062.63787,0.06439
3060.57826,0.06449
3058.51865,0.06448
3056.45904,0.06430
3054.39943,0.06391
3052.33982,0.06341
3050.28022,0.06310
3048.22061,0.06303
3046.16100,0.06269
3044.10139,0.06203
3042.04178,0.06146
3039.98217,0.06091
3037.92256,0.06027
3035.86296,0.05984
3033.80335,0.05955
3031.74374,0.05894
3029.68413,0.05824
3027.62452,0.05781
3025.56491,0.05759
3023.50530,0.05748
3021.44570,0.05744
3019.38609,0.05733
3017.32648,0.05705
3015.26687,0.05699
3013.20726,0.05713
3011.14765,0.05684
3009.08804,0.05615
3007.02844,0.05567
3004.96883,0.05559
3002.90922,0.05569
3000.84961,0.05593
2998.79000,0.05623
2996.73039,0.05638
2994.67079,0.05647
2992.61118,0.05652
2990.55157,0.05655
2988.49196,0.05673
2986.43235,0.05703
2984.37274,0.05729
2982.31313,0.05748
2980.25353,0.05765
2978.19392,0.05782
2976.13431,0.05804
2974.07470,0.05825
2972.01509,0.05829
2969.95548,0.05828
2967.89587,0.05832
2965.83627,0.05834
2963.77666,0.05841
2961.71705,0.05860
2959.65744,0.05865
2957.59783,0.05813
2955.53822,0.05743
2953.47861,0.05720
2951.41901,0.05715
2949.35940,0.05707
2947.29979,0.05725
2945.24018,0.05764
2943.18057,0.05828
2941.12096,0.05912
2939.06136,0.05970
2937.00175,0.05998
2934.94214,0.06032
2932.88253,0.06088
2930.82292,0.06166
2928.76331,0.06227
2926.70370,0.06226
2924.64410,0.06197
2922.58449,0.06200
2920.52488,0.06220
2918.46527,0.06212
2916.40566,0.06174
2914.34605,0.06115
2912.28644,0.06024
2910.22684,0.05907
2908.16723,0.05777
2906.10762,0.05696
2904.04801,0.05701
2901.98840,0.05714
2899.92879,0.05653
2897.86918,0.05581
2895.80958,0.05580
2893.74997,0.05606
2891.69036,0.05584
2889.63075,0.05534
2887.57114,0.05505
2885.51153,0.05505
2883.45193,0.05522
2881.39232,0.05537
2879.33271,0.05541
2877.27310,0.05545
2875.21349,0.05558
2873.15388,0.05573
2871.09427,0.05571
2869.03467,0.05543
2866.97506,0.05497
2864.91545,0.05444
2862.85584,0.05424
2860.79623,0.05428
2858.73662,0.05408
2856.67701,0.05397
2854.61741,0.05419
2852.55780,0.05447
2850.49819,0.05460
2848.43858,0.05440
2846.37897,0.05380
2844.31936,0.05309
2842.25975,0.05240
2840.20015,0.05165
2838.14054,0.05110
2836.08093,0.05082
2834.02132,0.05058
2831.96171,0.05032
2829.90210,0.05006
2827.84250,0.05002
2825.78289,0.05022
2823.72328,0.05005
2821.66367,0.04956
2819.60406,0.04939
2817.54445,0.04949
2815.48484,0.04962
2813.42524,0.04972
2811.36563,0.04971
2809.30602,0.04973
2807.24641,0.04963
2805.18680,0.04922
2803.12719,0.04892
2801.06758,0.04902
2799.00798,0.04926
2796.94837,0.04928
2794.88876,0.04899
2792.82915,0.04861
2790.76954,0.04830
2788.70993,0.04817
2786.65032,0.04819
2784.59072,0.04834
2782.53111,0.04846
2780.47150,0.04834
2778.41189,0.04806
2776.35228,0.04778
2774.29267,0.04772
2772.23307,0.04786
2770.17346,0.04783
2768.11385,0.04768
2766.05424,0.04770
2763.99463,0.04777
2761.93502,0.04774
2759.87541,0.04759
2757.81581,0.04731
2755.75620,0.04695
2753.69659,0.04663
2751.63698,0.04655
2749.57737,0.04660
2747.51776,0.04653
2745.45815,0.04634
2743.39855,0.04614
2741.33894,0.04610
2739.27933,0.04614
2737.21972,0.04608
2735.16011,0.04596
2733.10050,0.04578
2731.04089,0.04561
2728.98129,0.04563
2726.92168,0.04566
2724.86207,0.04545
2722.80246,0.04526
2720.74285,0.04521
2718.68324,0.04500
2716.62364,0.04471
2714.56403,0.04464
2712.50442,0.04474
2710.44481,0.04479
2708.38520,0.04469
2706.32559,0.04468
2704.26598,0.04494
2702.20638,0.04504
2700.14677,0.04464
2698.08716,0.04422
2696.02755,0.04418
2693.96794,0.04427
2691.90833,0.04432
2689.84872,0.04421
2687.78912,0.04395
2685.72951,0.04376
2683.66990,0.04380
2681.61029,0.04395
2679.55068,0.04392
2677.49107,0.04361
2675.43146,0.04331
2673.37186,0.04323
2671.31225,0.04320
2669.25264,0.04309
2667.19303,0.04296
2665.13342,0.04295
2663.07381,0.04290
2661.01421,0.04282
2658.95460,0.04281
2656.89499,0.04283
2654.83538,0.04279
2652.77577,0.04263
2650.71616,0.04238
2648.65655,0.04234
2646.59695,0.04259
2644.53734,0.04283
2642.47773,0.04266
2640.41812,0.04228
2638.35851,0.04223
2636.29890,0.04225
2634.23929,0.04189
2632.17969,0.04150
2630.12008,0.04144
2628.06047,0.04137
2626.00086,0.04112
2623.94125,0.04111
2621.88164,0.04131
2619.82203,0.04129
2617.76243,0.04114
2615.70282,0.04121
2613.64321,0.04118
2611.58360,0.04073
2609.52399,0.04020
2607.46438,0.04003
2605.40478,0.04023
2603.34517,0.04041
2601.28556,0.04038
2599.22595,0.04024
2597.16634,0.04009
2595.10673,0.04002
2593.04712,0.04009
2590.98752,0.03993
2588.92791,0.03949
2586.86830,0.03921
2584.80869,0.03921
2582.74908,0.03934
2580.68947,0.03943
2578.62986,0.03933
2576.57026,0.03918
2574.51065,0.03935
2572.45104,0.03972
2570.39143,0.03986
2568.33182,0.03965
2566.27221,0.03917
2564.21260,0.03864
2562.15300,0.03833
2560.09339,0.03820
2558.03378,0.03809
2555.97417,0.03814
2553.91456,0.03821
2551.85495,0.03795
2549.79535,0.03752
2547.73574,0.03726
2545.67613,0.03726
2543.61652,0.03737
2541.55691,0.03751
2539.49730,0.03752
2537.43769,0.03739
2535.37809,0.03726
2533.31848,0.03710
2531.25887,0.03709
2529.19926,0.03733
2527.13965,0.03748
2525.08004,0.03728
2523.02043,0.03692
2520.96083,0.03697
2518.90122,0.03726
2516.84161,0.03717
2514.78200,0.03676
2512.72239,0.03640
2510.66278,0.03627
2508.60317,0.03635
2506.54357,0.03642
2504.48396,0.03643
2502.42435,0.03650
2500.36474,0.03639
2498.30513,0.03611
2496.24552,0.03607
2494.18592,0.03603
2492.12631,0.03570
2490.06670,0.03560
2488.00709,0.03595
2485.94748,0.03627
2483.88787,0.03642
2481.82826,0.03640
2479.76866,0.03600
2477.70905,0.03549
2475.64944,0.03549
2473.58983,0.03586
2471.53022,0.03621
2469.47061,0.03633
2467.41100,0.03600
2465.35140,0.03541
2463.29179,0.03501
2461.23218,0.03498
2459.17257,0.03498
2457.11296,0.03501
2455.05335,0.03545
2452.99374,0.03586
2450.93414,0.03589
2448.87453,0.03581
2446.81492,0.03537
2444.75531,0.03479
2442.69570,0.03474
2440.63609,0.03483
2438.57649,0.03483
2436.51688,0.03492
2434.45727,0.03482
2432.39766,0.03467
2430.33805,0.03498
2428.27844,0.03526
2426.21883,0.03501
2424.15923,0.03484
2422.09962,0.03489
2420.04001,0.03482
2417.98040,0.03478
2415.92079,0.03468
2413.86118,0.03427
2411.80157,0.03413
2409.74197,0.03445
2407.68236,0.03457
2405.62275,0.03446
2403.56314,0.03441
2401.50353,0.03425
2399.44392,0.03395
2397.38431,0.03381
2395.32471,0.03385
2393.26510,0.03390
2391.20549,0.03377
2389.14588,0.03350
2387.08627,0.03340
2385.02666,0.03349
2382.96706,0.03363
2380.90745,0.03362
2378.84784,0.03315
2376.78823,0.03229
2374.72862,0.03189
2372.66901,0.03193
2370.60940,0.03210
2368.54980,0.03177
2366.49019,0.03096
2364.43058,0.03199
2362.37097,0.03331
2360.31136,0.03385
2358.25175,0.03210
2356.19214,0.03264
2354.13254,0.03223
2352.07293,0.03161
2350.01332,0.03326
2347.95371,0.03512
2345.89410,0.03415
2343.83449,0.02964
2341.77488,0.03015
2339.71528,0.03649
2337.65567,0.03942
2335.59606,0.03300
2333.53645,0.02575
2331.47684,0.02401
2329.41723,0.02663
2327.35763,0.03382
2325.29802,0.03957
2323.23841,0.04103
2321.17880,0.03988
2319.11919,0.03775
2317.05958,0.03586
2314.99997,0.03477
2312.94037,0.03484
2310.88076,0.03474
2308.82115,0.03480
2306.76154,0.03475
2304.70193,0.03443
2302.64232,0.03379
2300.58271,0.03323
2298.52311,0.03279
2296.46350,0.03252
2294.40389,0.03246
2292.34428,0.03230
2290.28467,0.03211
2288.22506,0.03170
2286.16545,0.03132
2284.10585,0.03129
2282.04624,0.03138
2279.98663,0.03112
2277.92702,0.03089
2275.86741,0.03116
2273.80780,0.03130
2271.74820,0.03098
2269.68859,0.03055
2267.62898,0.03035
2265.56937,0.03033
2263.50976,0.03039
2261.45015,0.03043
2259.39054,0.03035
2257.33094,0.03016
2255.27133,0.03015
2253.21172,0.03027
2251.15211,0.02990
2249.09250,0.02915
2247.03289,0.02890
2244.97328,0.02909
2242.91368,0.02881
2240.85407,0.02813
2238.79446,0.02760
2236.73485,0.02756
2234.67524,0.02789
2232.61563,0.02771
2230.55602,0.02774
2228.49642,0.02890
2226.43681,0.02945
2224.37720,0.02872
2222.31759,0.02839
2220.25798,0.02825
2218.19837,0.02790
2216.13877,0.02816
2214.07916,0.02853
2212.01955,0.02831
2209.95994,0.02810
2207.90033,0.02786
2205.84072,0.02723
2203.78111,0.02701
2201.72151,0.02665
2199.66190,0.02576
2197.60229,0.02563
2195.54268,0.02659
2193.48307,0.02761
2191.42346,0.02774
2189.36385,0.02686
2187.30425,0.02575
2185.24464,0.02554
2183.18503,0.02595
2181.12542,0.02551
2179.06581,0.02471
2177.00620,0.02510
2174.94659,0.02592
2172.88699,0.02612
2170.82738,0.02636
2168.76777,0.02651
2166.70816,0.02557
2164.64855,0.02449
2162.58894,0.02433
2160.52934,0.02353
2158.46973,0.02183
2156.41012,0.02136
2154.35051,0.02221
2152.29090,0.02318
2150.23129,0.02419
2148.17168,0.02472
2146.11208,0.02427
2144.05247,0.02404
2141.99286,0.02465
2139.93325,0.02516
2137.87364,0.02470
2135.81403,0.02354
2133.75442,0.02347
2131.69482,0.02481
2129.63521,0.02555
2127.57560,0.02551
2125.51599,0.02560
2123.45638,0.02558
2121.39677,0.02557
2119.33716,0.02550
2117.27756,0.02551
2115.21795,0.02628
2113.15834,0.02697
2111.09873,0.02674
2109.03912,0.02646
2106.97951,0.02641
2104.91991,0.02591
2102.86030,0.02532
2100.80069,0.02519
2098.74108,0.02518
2096.68147,0.02516
2094.62186,0.02534
2092.56225,0.02535
2090.50265,0.02508
2088.44304,0.02507
2086.38343,0.02518
2084.32382,0.02510
2082.26421,0.02489
2080.20460,0.02513
2078.14499,0.02598
2076.08539,0.02623
2074.02578,0.02562
2071.96617,0.02532
2069.90656,0.02542
2067.84695,0.02510
2065.78734,0.02459
2063.72773,0.02445
2061.66813,0.02402
2059.60852,0.02361
2057.54891,0.02371
2055.48930,0.02335
2053.42969,0.02266
2051.37008,0.02249
2049.31048,0.02273
2047.25087,0.02323
2045.19126,0.02370
2043.13165,0.02376
2041.07204,0.02339
2039.01243,0.02253
2036.95282,0.02185
2034.89322,0.02189
2032.83361,0.02188
2030.77400,0.02140
2028.71439,0.02088
2026.65478,0.02084
2024.59517,0.02126
2022.53556,0.02170
2020.47596,0.02118
2018.41635,0.02015
2016.35674,0.02054
2014.29713,0.02137
2012.23752,0.02103
2010.17791,0.02029
2008.11830,0.01989
2006.05870,0.02000
2003.99909,0.02030
2001.93948,0.02049
1999.87987,0.02077
1997.82026,0.02096
1995.76065,0.02100
1993.70105,0.02075
1991.64144,0.02057
1989.58183,0.02089
1987.52222,0.02076
1985.46261,0.02056
1983.40300,0.02117
1981.34339,0.02196
1979.28379,0.02160
1977.22418,0.02035
1975.16457,0.01978
1973.10496,0.01992
1971.04535,0.01965
1968.98574,0.01866
1966.92613,0.01856
1964.86653,0.02009
1962.80692,0.02058
1960.74731,0.01949
1958.68770,0.01935
1956.62809,0.02006
1954.56848,0.02005
1952.50887,0.01971
1950.44927,0.01941
1948.38966,0.01919
1946.33005,0.01923
1944.27044,0.01905
1942.21083,0.01901
1940.15122,0.01972
1938.09162,0.02022
1936.03201,0.02035
1933.97240,0.02008
1931.91279,0.01986
1929.85318,0.02029
1927.79357,0.02095
1925.73396,0.02098
1923.67436,0.02032
1921.61475,0.02020
1919.55514,0.02013
1917.49553,0.02008
1915.43592,0.02049
1913.37631,0.02030
1911.31670,0.01987
1909.25710,0.01972
1907.19749,0.01993
1905.13788,0.02005
1903.07827,0.01986
1901.01866,0.01938
1898.95905,0.01894
1896.89944,0.01875
1894.83984,0.01892
1892.78023,0.01947
1890.72062,0.01963
1888.66101,0.01966
1886.60140,0.01959
1884.54179,0.01905
1882.48219,0.01895
1880.42258,0.01940
1878.36297,0.01975
1876.30336,0.01974
1874.24375,0.01976
1872.18414,0.01964
1870.12453,0.01864
1868.06493,0.01818
1866.00532,0.01880
1863.94571,0.01891
1861.88610,0.01868
1859.82649,0.01865
1857.76688,0.01855
1855.70727,0.01827
1853.64767,0.01814
1851.58806,0.01823
1849.52845,0.01828
1847.46884,0.01817
1845.40923,0.01752
1843.34962,0.01771
1841.29002,0.01875
1839.23041,0.01836
1837.17080,0.01756
1835.11119,0.01757
1833.05158,0.01752
1830.99197,0.01668
1828.93236,0.01673
1826.87276,0.01713
1824.81315,0.01678
1822.75354,0.01682
1820.69393,0.01666
1818.63432,0.01613
1816.57471,0.01600
1814.51510,0.01625
1812.45550,0.01621
1810.39589,0.01610
1808.33628,0.01625
1806.27667,0.01645
1804.21706,0.01633
1802.15745,0.01574
1800.09784,0.01548
1798.03824,0.01599
1795.97863,0.01621
1793.91902,0.01524
1791.85941,0.01454
1789.79980,0.01539
1787.74019,0.01572
1785.68059,0.01509
1783.62098,0.01472
1781.56137,0.01448
1779.50176,0.01448
1777.44215,0.01484
1775.38254,0.01446
1773.32293,0.01328
1771.26333,0.01335
1769.20372,0.01423
1767.14411,0.01462
1765.08450,0.01469
1763.02489,0.01375
1760.96528,0.01333
1758.90567,0.01343
1756.84607,0.01316
1754.78646,0.01349
1752.72685,0.01301
1750.66724,0.01212
1748.60763,0.01250
1746.54802,0.01309
1744.48841,0.01293
1742.42881,0.01227
1740.36920,0.01193
1738.30959,0.01287
1736.24998,0.01242
1734.19037,0.01033
1732.13076,0.01085
1730.07116,0.01155
1728.01155,0.01138
1725.95194,0.01120
1723.89233,0.01123
1721.83272,0.01166
1719.77311,0.01087
1717.71350,0.00979
1715.65390,0.01116
1713.59429,0.01327
1711.53468,0.01478
1709.47507,0.01622
1707.41546,0.01855
1705.35585,0.02306
1703.29624,0.02857
1701.23664,0.03201
1699.17703,0.03578
1697.11742,0.03774
1695.05781,0.03746
1692.99820,0.03806
1690.93859,0.03788
1688.87898,0.03809
1686.81938,0.03807
1684.75977,0.03728
1682.70016,0.04007
1680.64055,0.04385
1678.58094,0.04545
1676.52133,0.04593
1674.46173,0.04784
1672.40212,0.05054
1670.34251,0.05186
1668.28290,0.05454
1666.22329,0.05786
1664.16368,0.05940
1662.10407,0.06155
1660.04447,0.06553
1657.98486,0.06919
1655.92525,0.07044
1653.86564,0.07067
1651.80603,0.07619
1649.74642,0.08138
1647.68681,0.08177
1645.62721,0.08392
1643.56760,0.08841
1641.50799,0.09180
1639.44838,0.09417
1637.38877,0.09581
1635.32916,0.09929
1633.26955,0.10551
1631.20995,0.10982
1629.15034,0.11223
1627.09073,0.11517
1625.03112,0.11784
1622.97151,0.12029
1620.91190,0.12301
1618.85230,0.12283
1616.79269,0.12064
1614.73308,0.11990
1612.67347,0.11823
1610.61386,0.11437
1608.55425,0.10992
1606.49464,0.10553
1604.43504,0.10086
1602.37543,0.09589
1600.31582,0.09108
1598.25621,0.08656
1596.19660,0.08233
1594.13699,0.07856
1592.07738,0.07513
1590.01778,0.07177
1587.95817,0.06860
1585.89856,0.06581
1583.83895,0.06359
1581.77934,0.06217
1579.71973,0.06094
1577.66012,0.05877
1575.60052,0.05798
1573.54091,0.05962
1571.48130,0.05960
1569.42169,0.05928
1567.36208,0.06122
1565.30247,0.06365
1563.24287,0.06581
1561.18326,0.06567
1559.12365,0.06554
1557.06404,0.07053
1555.00443,0.07428
1552.94482,0.07556
1550.88521,0.07682
1548.82561,0.07893
1546.76600,0.08132
1544.70639,0.08309
1542.64678,0.08437
1540.58717,0.08571
1538.52756,0.09006
1536.46795,0.09422
1534.40835,0.09523
1532.34874,0.09722
1530.28913,0.10041
1528.22952,0.10237
1526.16991,0.10444
1524.11030,0.10671
1522.05069,0.10848
1519.99109,0.11194
1517.93148,0.11562
1515.87187,0.11874
1513.81226,0.12169
1511.75265,0.12329
1509.69304,0.12273
1507.63344,0.11998
1505.57383,0.11939
1503.51422,0.12030
1501.45461,0.11855
1499.39500,0.11493
1497.33539,0.11153
1495.27578,0.10949
1493.21618,0.10725
1491.15657,0.10290
1489.09696,0.09844
1487.03735,0.09533
1484.97774,0.09257
1482.91813,0.08936
1480.85852,0.08625
1478.79892,0.08365
1476.73931,0.08092
1474.67970,0.07782
1472.62009,0.07514
1470.56048,0.07450
1468.50087,0.07396
1466.44126,0.07191
1464.38166,0.07055
1462.32205,0.07085
1460.26244,0.07025
1458.20283,0.06872
1456.14322,0.07029
1454.08361,0.07421
1452.02401,0.07661
1449.96440,0.07798
1447.90479,0.07955
1445.84518,0.08140
1443.78557,0.08258
1441.72596,0.08311
1439.66635,0.08279
1437.60675,0.08100
1435.54714,0.07976
1433.48753,0.07883
1431.42792,0.07626
1429.36831,0.07350
1427.30870,0.07160
1425.24909,0.06997
1423.18949,0.06891
1421.12988,0.06780
1419.07027,0.06671
1417.01066,0.06725
1414.95105,0.06783
1412.89144,0.06759
1410.83183,0.06744
1408.77223,0.06761
1406.71262,0.06752
1404.65301,0.06746
1402.59340,0.06765
1400.53379,0.06714
1398.47418,0.06638
1396.41458,0.06579
1394.35497,0.06530
1392.29536,0.06538
1390.23575,0.06499
1388.17614,0.06401
1386.11653,0.06366
1384.05692,0.06364
1381.99732,0.06318
1379.93771,0.06275
1377.87810,0.06252
1375.81849,0.06210
1373.75888,0.06184
1371.69927,0.06217
1369.63966,0.06228
1367.58006,0.06224
1365.52045,0.06184
1363.46084,0.06064
1361.40123,0.05967
1359.34162,0.05897
1357.28201,0.05787
1355.22240,0.05680
1353.16280,0.05615
1351.10319,0.05571
1349.04358,0.05537
1346.98397,0.05517
1344.92436,0.05509
1342.86475,0.05499
1340.80515,0.05464
1338.74554,0.05450
1336.68593,0.05478
1334.62632,0.05486
1332.56671,0.05462
1330.50710,0.05428
1328.44749,0.05388
1326.38789,0.05341
1324.32828,0.05289
1322.26867,0.05230
1320.20906,0.05164
1318.14945,0.05124
1316.08984,0.05115
1314.03023,0.05099
1311.97063,0.05078
1309.91102,0.05060
1307.85141,0.05039
1305.79180,0.05017
1303.73219,0.04989
1301.67258,0.04956
1299.61297,0.04924
1297.55337,0.04891
1295.49376,0.04857
1293.43415,0.04829
1291.37454,0.04809
1289.31493,0.04786
1287.25532,0.04765
1285.19572,0.04764
1283.13611,0.04777
1281.07650,0.04801
1279.01689,0.04840
1276.95728,0.04902
1274.89767,0.04990
1272.83806,0.05100
1270.77846,0.05232
1268.71885,0.05374
1266.65924,0.05504
1264.59963,0.05612
1262.54002,0.05687
1260.48041,0.05731
1258.42080,0.05760
1256.36120,0.05767
1254.30159,0.05756
1252.24198,0.05752
1250.18237,0.05760
1248.12276,0.05780
1246.06315,0.05827
1244.00354,0.05903
1241.94394,0.05990
1239.88433,0.06087
1237.82472,0.06207
1235.76511,0.06340
1233.70550,0.06475
1231.64589,0.06601
1229.58629,0.06703
1227.52668,0.06763
1225.46707,0.06778
1223.40746,0.06758
1221.34785,0.06708
1219.28824,0.06637
1217.22863,0.06559
1215.16903,0.06473
1213.10942,0.06368
1211.04981,0.06235
1208.99020,0.06085
1206.93059,0.05925
1204.87098,0.05759
1202.81137,0.05596
1200.75177,0.05441
1198.69216,0.05296
1196.63255,0.05164
1194.57294,0.05042
1192.51333,0.04931
1190.45372,0.04836
1188.39411,0.04757
1186.33451,0.04688
1184.27490,0.04636
1182.21529,0.04606
1180.15568,0.04600
1178.09607,0.04625
1176.03646,0.04670
1173.97686,0.04729
1171.91725,0.04808
1169.85764,0.04888
1167.79803,0.04936
1165.73842,0.04949
1163.67881,0.04948
1161.61920,0.04943
1159.55960,0.04929
1157.49999,0.04903
1155.44038,0.04861
1153.38077,0.04801
1151.32116,0.04728
1149.26155,0.04646
1147.20194,0.04553
1145.14234,0.04452
1143.08273,0.04356
1141.02312,0.04276
1138.96351,0.04215
1136.90390,0.04158
1134.84429,0.04105
1132.78468,0.04062
1130.72508,0.04020
1128.66547,0.03976
1126.60586,0.03933
1124.54625,0.03892
1122.48664,0.03852
1120.42703,0.03819
1118.36743,0.03794
1116.30782,0.03775
1114.24821,0.03758
1112.18860,0.03739
1110.12899,0.03713
1108.06938,0.03688
1106.00977,0.03680
1103.95017,0.03682
1101.89056,0.03681
1099.83095,0.03662
1097.77134,0.03626
1095.71173,0.03594
1093.65212,0.03575
1091.59251,0.03566
1089.53291,0.03578
1087.47330,0.03618
1085.41369,0.03679
1083.35408,0.03749
1081.29447,0.03815
1079.23486,0.03874
1077.17525,0.03946
1075.11565,0.04032
1073.05604,0.04097
1070.99643,0.04140
1068.93682,0.04182
1066.87721,0.04219
1064.81760,0.04233
1062.75800,0.04225
1060.69839,0.04213
1058.63878,0.04198
1056.57917,0.04168
1054.51956,0.04127
1052.45995,0.04085
1050.40034,0.04060
1048.34074,0.04048
1046.28113,0.04028
1044.22152,0.03999
1042.16191,0.03968
1040.10230,0.03935
1038.04269,0.03894
1035.98308,0.03853
1033.92348,0.03814
1031.86387,0.03768
1029.80426,0.03710
1027.74465,0.03649
1025.68504,0.03598
1023.62543,0.03558
1021.56582,0.03521
1019.50622,0.03491
1017.44661,0.03476
1015.38700,0.03475
1013.32739,0.03482
1011.26778,0.03494
1009.20817,0.03503
1007.14857,0.03520
1005.08896,0.03553
1003.02935,0.03595
1000.96974,0.03629
998.91013,0.03655
996.85052,0.03677
994.79091,0.03677
992.73131,0.03642
990.67170,0.03573
988.61209,0.03481
986.55248,0.03397
984.49287,0.03357
982.43326,0.03367
980.37365,0.03411
978.31405,0.03468
976.25444,0.03510
974.19483,0.03518
972.13522,0.03499
970.07561,0.03452
968.01600,0.03381
965.95639,0.03307
963.89679,0.03248
961.83718,0.03200
959.77757,0.03169
957.71796,0.03148
955.65835,0.03117
953.59874,0.03083
951.53914,0.03058
949.47953,0.03030
947.41992,0.02995
945.36031,0.02965
943.30070,0.02942
941.24109,0.02920
939.18148,0.02904
937.12188,0.02894
935.06227,0.02885
933.00266,0.02878
930.94305,0.02877
928.88344,0.02873
926.82383,0.02861
924.76422,0.02847
922.70462,0.02826
920.64501,0.02792
918.58540,0.02753
916.52579,0.02718
914.46618,0.02687
912.40657,0.02664
910.34696,0.02643
908.28736,0.02618
906.22775,0.02592
904.16814,0.02565
902.10853,0.02536
900.04892,0.02520
897.98931,0.02517
895.92971,0.02506
893.87010,0.02487
891.81049,0.02474
889.75088,0.02464
887.69127,0.02454
885.63166,0.02452
883.57205,0.02455
881.51245,0.02450
879.45284,0.02429
877.39323,0.02407
875.33362,0.02392
873.27401,0.02375
871.21440,0.02360
869.15479,0.02344
867.09519,0.02320
865.03558,0.02302
862.97597,0.02298
860.91636,0.02298
858.85675,0.02301
856.79714,0.02315
854.73753,0.02333
852.67793,0.02344
850.61832,0.02353
848.55871,0.02359
846.49910,0.02347
844.43949,0.02319
842.37988,0.02297
840.32028,0.02293
838.26067,0.02302
836.20106,0.02320
834.14145,0.02342
832.08184,0.02360
830.02223,0.02376
827.96262,0.02387
825.90302,0.02377
823.84341,0.02355
821.78380,0.02336
819.72419,0.02326
817.66458,0.02319
815.60497,0.02307
813.54536,0.02287
811.48576,0.02272
809.42615,0.02268
807.36654,0.02265
805.30693,0.02257
803.24732,0.02245
801.18771,0.02229
799.12810,0.02215
797.06850,0.02219
795.00889,0.02226
792.94928,0.02220
790.88967,0.02216
788.83006,0.02229
786.77045,0.02235
784.71085,0.02239
782.65124,0.02261
780.59163,0.02279
778.53202,0.02285
776.47241,0.02303
774.41280,0.02331
772.35319,0.02363
770.29359,0.02401
768.23398,0.02438
766.17437,0.02464
764.11476,0.02472
762.05515,0.02468
759.99554,0.02464
757.93593,0.02477
755.87633,0.02512
753.81672,0.02549
751.75711,0.02570
749.69750,0.02574
747.63789,0.02585
745.57828,0.02623
743.51867,0.02674
741.45907,0.02721
739.39946,0.02769
737.33985,0.02825
735.28024,0.02892
733.22063,0.02960
731.16102,0.03023
729.10142,0.03092
727.04181,0.03160
724.98220,0.03212
722.92259,0.03249
720.86298,0.03288
718.80337,0.03328
716.74376,0.03380
714.68416,0.03426
712.62455,0.03460
710.56494,0.03490
708.50533,0.03531
706.44572,0.03582
704.38611,0.03631
702.32650,0.03680
700.26690,0.03735
698.20729,0.03772
696.14768,0.03789
694.08807,0.03816
692.02846,0.03843
689.96885,0.03843
687.90924,0.03843
685.84964,0.03858
683.79003,0.03846
681.73042,0.03827
679.67081,0.03842
677.61120,0.03851
675.55159,0.03818
673.49199,0.03800
671.43238,0.03761
669.37277,0.03646
667.31316,0.03812
665.25355,0.03805
663.19394,0.03808
661.13433,0.03825
659.07473,0.03826
657.01512,0.03837
654.95551,0.03857
652.89590,0.03871
650.83629,0.03909
648.77668,0.03956
646.71707,0.03974
644.65747,0.03988
642.59786,0.03999
640.53825,0.04003
638.47864,0.04008
636.41903,0.04020
634.35942,0.04039
632.29981,0.04056
630.24021,0.04070
628.18060,0.04085
626.12099,0.04083
624.06138,0.04069
622.00177,0.04046
619.94216,0.04012
617.88256,0.03985
615.82295,0.03984
613.76334,0.04008
611.70373,0.04028
609.64412,0.04017
607.58451,0.03978
605.52490,0.03925
603.46530,0.03870
601.40569,0.03821
599.34608,0.03767
597.28647,0.03722
595.22686,0.03701
593.16725,0.03677
591.10764,0.03632
589.04804,0.03588
586.98843,0.03557
584.92882,0.03526
582.86921,0.03485
580.80960,0.03452
578.74999,0.03435
576.69039,0.03419
574.63078,0.03405
572.57117,0.03392
570.51156,0.03391
568.45195,0.03424
566.39234,0.03483
564.33273,0.03541
562.27313,0.03603
560.21352,0.03696
558.15391,0.03800
556.09430,0.03894
554.03469,0.03984
551.97508,0.04052
549.91547,0.04084
547.85587,0.04094
545.79626,0.04074
543.73665,0.04015
541.67704,0.03948
539.61743,0.03909
537.55782,0.03879
535.49821,0.03828
533.43861,0.03755
531.37900,0.03674
529.31939,0.03598
527.25978,0.03540
525.20017,0.03511
523.14056,0.03500
521.08096,0.03481
519.02135,0.03453
516.96174,0.03424
514.90213,0.03400
512.84252,0.03369
510.78291,0.03345
508.72330,0.03327
506.66370,0.03296
504.60409,0.03254
502.54448,0.03224
500.48487,0.03210
498.42526,0.03174
496.36565,0.03130
494.30604,0.03114
492.24644,0.03125
490.18683,0.03139
488.12722,0.03121
486.06761,0.03066
484.00800,0.03007
481.94839,0.02972
479.88878,0.02954
477.82918,0.02940
475.76957,0.02909
473.70996,0.02848
471.65035,0.02813
469.59074,0.02823
467.53113,0.02817
465.47153,0.02768
463.41192,0.02708
461.35231,0.02675
459.29270,0.02645
457.23309,0.02629
455.17348,0.02627
453.11387,0.02608
451.05427,0.02602
448.99466,0.02604
446.93505,0.02610
444.87544,0.02606
442.81583,0.02568
440.75622,0.02552
438.69661,0.02553
436.63701,0.02536
434.57740,0.02546
432.51779,0.02588
430.45818,0.02625
428.39857,0.02646
426.33896,0.02650
424.27935,0.02646
422.21975,0.02605
420.16014,0.02513
418.10053,0.02505
416.04092,0.02586
413.98131,0.02600
411.92170,0.02546
409.86210,0.02459
407.80249,0.02359
405.74288,0.02299
403.68327,0.02307
401.62366,0.02309
399.56405,0.02242
