3997.70013,0.05207
3995.64052,0.05250
3993.58092,0.05272
3991.52131,0.05262
3989.46170,0.05223
3987.40209,0.05197
3985.34248,0.05210
3983.28287,0.05224
3981.22327,0.05212
3979.16366,0.05220
3977.10405,0.05243
3975.04444,0.05237
3972.98483,0.05230
3970.92522,0.05213
3968.86561,0.05137
3966.80601,0.05063
3964.74640,0.05064
3962.68679,0.05108
3960.62718,0.05151
3958.56757,0.05197
3956.50796,0.05266
3954.44835,0.05332
3952.38875,0.05347
3950.32914,0.05307
3948.26953,0.05259
3946.20992,0.05233
3944.15031,0.05201
3942.09070,0.05158
3940.03109,0.05130
3937.97149,0.05121
3935.91188,0.05129
3933.85227,0.05136
3931.79266,0.05121
3929.73305,0.05102
3927.67344,0.05108
3925.61384,0.05125
3923.55423,0.05123
3921.49462,0.05118
3919.43501,0.05123
3917.37540,0.05121
3915.31579,0.05113
3913.25618,0.05110
3911.19658,0.05104
3909.13697,0.05101
3907.07736,0.05127
3905.01775,0.05155
3902.95814,0.05135
3900.89853,0.05081
3898.83892,0.05035
3896.77932,0.05018
3894.71971,0.05034
3892.66010,0.05056
3890.60049,0.05047
3888.54088,0.05009
3886.48127,0.04979
3884.42166,0.04976
3882.36206,0.04961
3880.30245,0.04908
3878.24284,0.04850
3876.18323,0.04839
3874.12362,0.04870
3872.06401,0.04895
3870.00441,0.04907
3867.94480,0.04939
3865.88519,0.04983
3863.82558,0.05024
3861.76597,0.05069
3859.70636,0.05109
3857.64675,0.05105
3855.58715,0.05019
3853.52754,0.04900
3851.46793,0.04873
3849.40832,0.04919
3847.34871,0.04917
3845.28910,0.04843
3843.22949,0.04783
3841.16989,0.04802
3839.11028,0.04858
3837.05067,0.04889
3834.99106,0.04903
3832.93145,0.04917
3830.87184,0.04915
3828.81223,0.04906
3826.75263,0.04900
3824.69302,0.04880
3822.63341,0.04861
3820.57380,0.04874
3818.51419,0.04900
3816.45458,0.04901
3814.39498,0.04877
3812.33537,0.04875
3810.27576,0.04904
3808.21615,0.04883
3806.15654,0.04770
3804.09693,0.04652
3802.03732,0.04617
3799.97772,0.04669
3797.91811,0.04741
3795.85850,0.04784
3793.79889,0.04794
3791.73928,0.04776
3789.67967,0.04763
3787.62006,0.04777
3785.56046,0.04804
3783.50085,0.04821
3781.44124,0.04782
3779.38163,0.04684
3777.32202,0.04610
3775.26241,0.04621
3773.20280,0.04675
3771.14320,0.04715
3769.08359,0.04731
3767.02398,0.04727
3764.96437,0.04721
3762.90476,0.04698
3760.84515,0.04622
3758.78555,0.04538
3756.72594,0.04531
3754.66633,0.04576
3752.60672,0.04581
3750.54711,0.04531
3748.48750,0.04504
3746.42789,0.04553
3744.36829,0.04625
3742.30868,0.04581
3740.24907,0.04459
3738.18946,0.04440
3736.12985,0.04563
3734.07024,0.04678
3732.01063,0.04684
3729.95103,0.04621
3727.89142,0.04552
3725.83181,0.04510
3723.77220,0.04496
3721.71259,0.04486
3719.65298,0.04490
3717.59337,0.04511
3715.53377,0.04504
3713.47416,0.04441
3711.41455,0.04373
3709.35494,0.04377
3707.29533,0.04445
3705.23572,0.04524
3703.17612,0.04582
3701.11651,0.04602
3699.05690,0.04616
3696.99729,0.04639
3694.93768,0.04637
3692.87807,0.04604
3690.81846,0.04553
3688.75886,0.04468
3686.69925,0.04405
3684.63964,0.04435
3682.58003,0.04499
3680.52042,0.04504
3678.46081,0.04463
3676.40120,0.04480
3674.34160,0.04563
3672.28199,0.04553
3670.22238,0.04411
3668.16277,0.04295
3666.10316,0.04300
3664.04355,0.04368
3661.98394,0.04457
3659.92434,0.04543
3657.86473,0.04572
3655.80512,0.04544
3653.74551,0.04514
3651.68590,0.04495
3649.62629,0.04487
3647.56669,0.04501
3645.50708,0.04506
3643.44747,0.04494
3641.38786,0.04514
3639.32825,0.04567
3637.26864,0.04586
3635.20903,0.04577
3633.14943,0.04595
3631.08982,0.04643
3629.03021,0.04680
3626.97060,0.04678
3624.91099,0.04672
3622.85138,0.04687
3620.79177,0.04715
3618.73217,0.04736
3616.67256,0.04734
3614.61295,0.04728
3612.55334,0.04746
3610.49373,0.04775
3608.43412,0.04796
3606.37451,0.04808
3604.31491,0.04821
3602.25530,0.04852
3600.19569,0.04896
3598.13608,0.04926
3596.07647,0.04935
3594.01686,0.04941
3591.95726,0.04964
3589.89765,0.05002
3587.83804,0.05030
3585.77843,0.05036
3583.71882,0.05071
3581.65921,0.05106
3579.59960,0.05087
3577.54000,0.05077
3575.48039,0.05119
3573.42078,0.05165
3571.36117,0.05175
3569.30156,0.05168
3567.24195,0.05183
3565.18234,0.05219
3563.12274,0.05244
3561.06313,0.05262
3559.00352,0.05301
3556.94391,0.05371
3554.88430,0.05433
3552.82469,0.05450
3550.76508,0.05439
3548.70548,0.05435
3546.64587,0.05465
3544.58626,0.05534
3542.52665,0.05598
3540.46704,0.05601
3538.40743,0.05572
3536.34783,0.05590
3534.28822,0.05667
3532.22861,0.05745
3530.16900,0.05796
3528.10939,0.05831
3526.04978,0.05845
3523.99017,0.05841
3521.93057,0.05831
3519.87096,0.05821
3517.81135,0.05830
3515.75174,0.05853
3513.69213,0.05892
3511.63252,0.05949
3509.57291,0.05976
3507.51331,0.05965
3505.45370,0.05968
3503.39409,0.05992
3501.33448,0.06022
3499.27487,0.06053
3497.21526,0.06087
3495.15565,0.06132
3493.09605,0.06193
3491.03644,0.06241
3488.97683,0.06240
3486.91722,0.06196
3484.85761,0.06169
3482.79800,0.06182
3480.73840,0.06188
3478.67879,0.06172
3476.61918,0.06166
3474.55957,0.06172
3472.49996,0.06173
3470.44035,0.06183
3468.38074,0.06206
3466.32114,0.06226
3464.26153,0.06241
3462.20192,0.06249
3460.14231,0.06243
3458.08270,0.06228
3456.02309,0.06233
3453.96348,0.06286
3451.90388,0.06352
3449.84427,0.06395
3447.78466,0.06429
3445.72505,0.06460
3443.66544,0.06463
3441.60583,0.06442
3439.54622,0.06437
3437.48662,0.06466
3435.42701,0.06505
3433.36740,0.06510
3431.30779,0.06499
3429.24818,0.06530
3427.18857,0.06571
3425.12897,0.06571
3423.06936,0.06586
3421.00975,0.06650
3418.95014,0.06708
3416.89053,0.06751
3414.83092,0.06802
3412.77131,0.06832
3410.71171,0.06840
3408.65210,0.06875
3406.59249,0.06938
3404.53288,0.06966
3402.47327,0.06949
3400.41366,0.06945
3398.35405,0.07010
3396.29445,0.07120
3394.23484,0.07168
3392.17523,0.07145
3390.11562,0.07138
3388.05601,0.07169
3385.99640,0.07233
3383.93679,0.07303
3381.87719,0.07334
3379.81758,0.07336
3377.75797,0.07352
3375.69836,0.07397
3373.63875,0.07444
3371.57914,0.07481
3369.51954,0.07502
3367.45993,0.07516
3365.40032,0.07574
3363.34071,0.07661
3361.28110,0.07716
3359.22149,0.07770
3357.16188,0.07863
3355.10228,0.07967
3353.04267,0.08058
3350.98306,0.08160
3348.92345,0.08257
3346.86384,0.08316
3344.80423,0.08376
3342.74462,0.08481
3340.68502,0.08625
3338.62541,0.08809
3336.56580,0.09001
3334.50619,0.09161
3332.44658,0.09314
3330.38697,0.09496
3328.32736,0.09708
3326.26776,0.09928
3324.20815,0.10143
3322.14854,0.10398
3320.08893,0.10709
3318.02932,0.11025
3315.96971,0.11316
3313.91011,0.11576
3311.85050,0.11838
3309.79089,0.12144
3307.73128,0.12488
3305.67167,0.12839
3303.61206,0.13192
3301.55245,0.13555
3299.49285,0.13896
3297.43324,0.14207
3295.37363,0.14544
3293.31402,0.14933
3291.25441,0.15317
3289.19480,0.15635
3287.13519,0.15915
3285.07559,0.16169
3283.01598,0.16374
3280.95637,0.16550
3278.89676,0.16702
3276.83715,0.16810
3274.77754,0.16873
3272.71793,0.16901
3270.65833,0.16902
3268.59872,0.16862
3266.53911,0.16740
3264.47950,0.16529
3262.41989,0.16270
3260.36028,0.15991
3258.30068,0.15751
3256.24107,0.15601
3254.18146,0.15480
3252.12185,0.15301
3250.06224,0.15069
3248.00263,0.14843
3245.94302,0.14645
3243.88342,0.14435
3241.82381,0.14212
3239.76420,0.14040
3237.70459,0.13909
3235.64498,0.13746
3233.58537,0.13561
3231.52576,0.13406
3229.46616,0.13285
3227.40655,0.13147
3225.34694,0.12952
3223.28733,0.12752
3221.22772,0.12591
3219.16811,0.12455
3217.10850,0.12340
3215.04890,0.12249
3212.98929,0.12135
3210.92968,0.11961
3208.87007,0.11791
3206.81046,0.11692
3204.75085,0.11638
3202.69125,0.11563
3200.63164,0.11434
3198.57203,0.11287
3196.51242,0.11155
3194.45281,0.11034
3192.39320,0.10924
3190.33359,0.10804
3188.27399,0.10669
3186.21438,0.10565
3184.15477,0.10497
3182.09516,0.10418
3180.03555,0.10307
3177.97594,0.10188
3175.91633,0.10097
3173.85673,0.10015
3171.79712,0.09904
3169.73751,0.09793
3167.67790,0.09709
3165.61829,0.09618
3163.55868,0.09528
3161.49907,0.09464
3159.43947,0.09389
3157.37986,0.09290
3155.32025,0.09204
3153.26064,0.09125
3151.20103,0.09014
3149.14142,0.08910
3147.08182,0.08861
3145.02221,0.08847
3142.96260,0.08811
3140.90299,0.08725
3138.84338,0.08641
3136.78377,0.08600
3134.72416,0.08584
3132.66456,0.08573
3130.60495,0.08551
3128.54534,0.08503
3126.48573,0.08449
3124.42612,0.08428
3122.36651,0.08439
3120.30690,0.08453
3118.24730,0.08469
3116.18769,0.08472
3114.12808,0.08449
3112.06847,0.08440
3110.00886,0.08466
3107.94925,0.08496
3105.88965,0.08495
3103.83004,0.08469
3101.77043,0.08463
3099.71082,0.08481
3097.65121,0.08481
3095.59160,0.08468
3093.53199,0.08499
3091.47239,0.08576
3089.41278,0.08638
3087.35317,0.08670
3085.29356,0.08690
3083.23395,0.08689
3081.17434,0.08695
3079.11473,0.08740
3077.05513,0.08805
3074.99552,0.08838
3072.93591,0.08821
3070.87630,0.08777
3068.81669,0.08738
3066.75708,0.08730
3064.69747,0.08724
3062.63787,0.08705
3060.57826,0.08680
3058.51865,0.08638
3056.45904,0.08596
3054.39943,0.08567
3052.33982,0.08522
3050.28022,0.08460
3048.22061,0.08406
3046.16100,0.08366
3044.10139,0.08331
3042.04178,0.08280
3039.98217,0.08210
3037.92256,0.08122
3035.86296,0.08026
3033.80335,0.07949
3031.74374,0.07892
3029.68413,0.07826
3027.62452,0.07754
3025.56491,0.07711
3023.50530,0.07693
3021.44570,0.07658
3019.38609,0.07603
3017.32648,0.07553
3015.26687,0.07515
3013.20726,0.07494
3011.14765,0.07479
3009.08804,0.07436
3007.02844,0.07396
3004.96883,0.07412
3002.90922,0.07449
3000.84961,0.07452
2998.79000,0.07443
2996.73039,0.07449
2994.67079,0.07459
2992.61118,0.07462
2990.55157,0.07490
2988.49196,0.07540
2986.43235,0.07572
2984.37274,0.07619
2982.31313,0.07704
2980.25353,0.07773
2978.19392,0.07807
2976.13431,0.07820
2974.07470,0.07816
2972.01509,0.07820
2969.95548,0.07844
2967.89587,0.07875
2965.83627,0.07904
2963.77666,0.07912
2961.71705,0.07900
2959.65744,0.07871
2957.59783,0.07825
2955.53822,0.07774
2953.47861,0.07722
2951.41901,0.07699
2949.35940,0.07705
2947.29979,0.07706
2945.24018,0.07723
2943.18057,0.07794
2941.12096,0.07897
2939.06136,0.07995
2937.00175,0.08093
2934.94214,0.08215
2932.88253,0.08358
2930.82292,0.08471
2928.76331,0.08516
2926.70370,0.08544
2924.64410,0.08592
2922.58449,0.08607
2920.52488,0.08567
2918.46527,0.08475
2916.40566,0.08320
2914.34605,0.08138
2912.28644,0.07976
2910.22684,0.07841
2908.16723,0.07744
2906.10762,0.07682
2904.04801,0.07623
2901.98840,0.07570
2899.92879,0.07527
2897.86918,0.07483
2895.80958,0.07441
2893.74997,0.07391
2891.69036,0.07326
2889.63075,0.07268
2887.57114,0.07246
2885.51153,0.07260
2883.45193,0.07292
2881.39232,0.07319
2879.33271,0.07317
2877.27310,0.07309
2875.21349,0.07341
2873.15388,0.07391
2871.09427,0.07414
2869.03467,0.07404
2866.97506,0.07356
2864.91545,0.07289
2862.85584,0.07235
2860.79623,0.07214
2858.73662,0.07232
2856.67701,0.07258
2854.61741,0.07280
2852.55780,0.07311
2850.49819,0.07313
2848.43858,0.07235
2846.37897,0.07105
2844.31936,0.06992
2842.25975,0.06919
2840.20015,0.06869
2838.14054,0.06832
2836.08093,0.06796
2834.02132,0.06736
2831.96171,0.06665
2829.90210,0.06628
2827.84250,0.06628
2825.78289,0.06615
2823.72328,0.06577
2821.66367,0.06547
2819.60406,0.06538
2817.54445,0.06531
2815.48484,0.06505
2813.42524,0.06485
2811.36563,0.06484
2809.30602,0.06480
2807.24641,0.06477
2805.18680,0.06469
2803.12719,0.06436
2801.06758,0.06402
2799.00798,0.06398
2796.94837,0.06401
2794.88876,0.06372
2792.82915,0.06336
2790.76954,0.06346
2788.70993,0.06369
2786.65032,0.06344
2784.59072,0.06308
2782.53111,0.06295
2780.47150,0.06277
2778.41189,0.06258
2776.35228,0.06255
2774.29267,0.06257
2772.23307,0.06237
2770.17346,0.06206
2768.11385,0.06195
2766.05424,0.06190
2763.99463,0.06175
2761.93502,0.06154
2759.87541,0.06134
2757.81581,0.06128
2755.75620,0.06120
2753.69659,0.06095
2751.63698,0.06071
2749.57737,0.06053
2747.51776,0.06038
2745.45815,0.06028
2743.39855,0.06009
2741.33894,0.05993
2739.27933,0.06000
2737.21972,0.05998
2735.16011,0.05981
2733.10050,0.05969
2731.04089,0.05948
2728.98129,0.05912
2726.92168,0.05891
2724.86207,0.05898
2722.80246,0.05898
2720.74285,0.05863
2718.68324,0.05829
2716.62364,0.05841
2714.56403,0.05858
2712.50442,0.05817
2710.44481,0.05767
2708.38520,0.05763
2706.32559,0.05770
2704.26598,0.05760
2702.20638,0.05749
2700.14677,0.05743
2698.08716,0.05729
2696.02755,0.05699
2693.96794,0.05660
2691.90833,0.05643
2689.84872,0.05647
2687.78912,0.05650
2685.72951,0.05642
2683.66990,0.05621
2681.61029,0.05598
2679.55068,0.05574
2677.49107,0.05555
2675.43146,0.05563
2673.37186,0.05584
2671.31225,0.05595
2669.25264,0.05590
2667.19303,0.05567
2665.13342,0.05539
2663.07381,0.05542
2661.01421,0.05575
2658.95460,0.05585
2656.89499,0.05561
2654.83538,0.05546
2652.77577,0.05543
2650.71616,0.05531
2648.65655,0.05505
2646.59695,0.05459
2644.53734,0.05417
2642.47773,0.05416
2640.41812,0.05441
2638.35851,0.05457
2636.29890,0.05457
2634.23929,0.05459
2632.17969,0.05441
2630.12008,0.05388
2628.06047,0.05352
2626.00086,0.05345
2623.94125,0.05344
2621.88164,0.05364
2619.82203,0.05378
2617.76243,0.05356
2615.70282,0.05333
2613.64321,0.05337
2611.58360,0.05340
2609.52399,0.05292
2607.46438,0.05218
2605.40478,0.05175
2603.34517,0.05152
2601.28556,0.05123
2599.22595,0.05110
2597.16634,0.05131
2595.10673,0.05168
2593.04712,0.05170
2590.98752,0.05138
2588.92791,0.05109
2586.86830,0.05086
2584.80869,0.05058
2582.74908,0.05033
2580.68947,0.05027
2578.62986,0.05032
2576.57026,0.05015
2574.51065,0.05007
2572.45104,0.05032
2570.39143,0.05041
2568.33182,0.05019
2566.27221,0.04992
2564.21260,0.04966
2562.15300,0.04940
2560.09339,0.04910
2558.03378,0.04890
2555.97417,0.04887
2553.91456,0.04886
2551.85495,0.04892
2549.79535,0.04897
2547.73574,0.04896
2545.67613,0.04909
2543.61652,0.04905
2541.55691,0.04863
2539.49730,0.04831
2537.43769,0.04838
2535.37809,0.04845
2533.31848,0.04816
2531.25887,0.04788
2529.19926,0.04786
2527.13965,0.04779
2525.08004,0.04756
2523.02043,0.04743
2520.96083,0.04758
2518.90122,0.04780
2516.84161,0.04773
2514.78200,0.04740
2512.72239,0.04728
2510.66278,0.04737
2508.60317,0.04732
2506.54357,0.04720
2504.48396,0.04700
2502.42435,0.04659
2500.36474,0.04638
2498.30513,0.04664
2496.24552,0.04697
2494.18592,0.04696
2492.12631,0.04668
2490.06670,0.04627
2488.00709,0.04599
2485.94748,0.04591
2483.88787,0.04601
2481.82826,0.04605
2479.76866,0.04559
2477.70905,0.04521
2475.64944,0.04562
2473.58983,0.04602
2471.53022,0.04587
2469.47061,0.04555
2467.41100,0.04541
2465.35140,0.04542
2463.29179,0.04543
2461.23218,0.04544
2459.17257,0.04526
2457.11296,0.04503
2455.05335,0.04501
2452.99374,0.04510
2450.93414,0.04525
2448.87453,0.04540
2446.81492,0.04543
2444.75531,0.04525
2442.69570,0.04516
2440.63609,0.04523
2438.57649,0.04504
2436.51688,0.04461
2434.45727,0.04459
2432.39766,0.04501
2430.33805,0.04500
2428.27844,0.04446
2426.21883,0.04411
2424.15923,0.04402
2422.09962,0.04400
2420.04001,0.04392
2417.98040,0.04389
2415.92079,0.04422
2413.86118,0.04445
2411.80157,0.04423
2409.74197,0.04393
2407.68236,0.04362
2405.62275,0.04352
2403.56314,0.04392
2401.50353,0.04414
2399.44392,0.04376
2397.38431,0.04341
2395.32471,0.04334
2393.26510,0.04330
2391.20549,0.04326
2389.14588,0.04329
2387.08627,0.04331
2385.02666,0.04340
2382.96706,0.04365
2380.90745,0.04379
2378.84784,0.04362
2376.78823,0.04340
2374.72862,0.04301
2372.66901,0.04306
2370.60940,0.04370
2368.54980,0.04357
2366.49019,0.04326
2364.43058,0.04295
2362.37097,0.04304
2360.31136,0.04402
2358.25175,0.04440
2356.19214,0.04434
2354.13254,0.04389
2352.07293,0.04343
2350.01332,0.04397
2347.95371,0.04355
2345.89410,0.04284
2343.83449,0.04296
2341.77488,0.04276
2339.71528,0.04320
2337.65567,0.04321
2335.59606,0.04294
2333.53645,0.04323
2331.47684,0.04327
2329.41723,0.04370
2327.35763,0.04334
2325.29802,0.04353
2323.23841,0.04343
2321.17880,0.04298
2319.11919,0.04264
2317.05958,0.04247
2314.99997,0.04219
2312.94037,0.04166
2310.88076,0.04130
2308.82115,0.04119
2306.76154,0.04117
2304.70193,0.04124
2302.64232,0.04129
2300.58271,0.04123
2298.52311,0.04117
2296.46350,0.04123
2294.40389,0.04109
2292.34428,0.04086
2290.28467,0.04081
2288.22506,0.04082
2286.16545,0.04082
2284.10585,0.04087
2282.04624,0.04088
2279.98663,0.04059
2277.92702,0.03974
2275.86741,0.03874
2273.80780,0.03832
2271.74820,0.03843
2269.68859,0.03862
2267.62898,0.03864
2265.56937,0.03834
2263.50976,0.03797
2261.45015,0.03778
2259.39054,0.03773
2257.33094,0.03756
2255.27133,0.03699
2253.21172,0.03679
2251.15211,0.03712
2249.09250,0.03719
2247.03289,0.03717
2244.97328,0.03753
2242.91368,0.03772
2240.85407,0.03712
2238.79446,0.03616
2236.73485,0.03550
2234.67524,0.03508
2232.61563,0.03456
2230.55602,0.03421
2228.49642,0.03445
2226.43681,0.03500
2224.37720,0.03528
2222.31759,0.03508
2220.25798,0.03463
2218.19837,0.03426
2216.13877,0.03447
2214.07916,0.03511
2212.01955,0.03527
2209.95994,0.03469
2207.90033,0.03419
2205.84072,0.03433
2203.78111,0.03476
2201.72151,0.03481
2199.66190,0.03402
2197.60229,0.03318
2195.54268,0.03288
2193.48307,0.03211
2191.42346,0.03138
2189.36385,0.03143
2187.30425,0.03103
2185.24464,0.03050
2183.18503,0.03071
2181.12542,0.03086
2179.06581,0.03063
2177.00620,0.03063
2174.94659,0.03139
2172.88699,0.03212
2170.82738,0.03176
2168.76777,0.03072
2166.70816,0.03008
2164.64855,0.03011
2162.58894,0.03025
2160.52934,0.02952
2158.46973,0.02796
2156.41012,0.02704
2154.35051,0.02666
2152.29090,0.02653
2150.23129,0.02730
2148.17168,0.02840
2146.11208,0.02859
2144.05247,0.02831
2141.99286,0.02870
2139.93325,0.02942
2137.87364,0.02997
2135.81403,0.03029
2133.75442,0.03019
2131.69482,0.03046
2129.63521,0.03140
2127.57560,0.03188
2125.51599,0.03176
2123.45638,0.03196
2121.39677,0.03252
2119.33716,0.03282
2117.27756,0.03290
2115.21795,0.03297
2113.15834,0.03278
2111.09873,0.03269
2109.03912,0.03295
2106.97951,0.03300
2104.91991,0.03262
2102.86030,0.03188
2100.80069,0.03139
2098.74108,0.03161
2096.68147,0.03182
2094.62186,0.03180
2092.56225,0.03181
2090.50265,0.03184
2088.44304,0.03225
2086.38343,0.03268
2084.32382,0.03222
2082.26421,0.03144
2080.20460,0.03123
2078.14499,0.03151
2076.08539,0.03183
2074.02578,0.03195
2071.96617,0.03179
2069.90656,0.03094
2067.84695,0.02959
2065.78734,0.02879
2063.72773,0.02840
2061.66813,0.02786
2059.60852,0.02777
2057.54891,0.02849
2055.48930,0.02923
2053.42969,0.02943
2051.37008,0.02914
2049.31048,0.02842
2047.25087,0.02766
2045.19126,0.02726
2043.13165,0.02697
2041.07204,0.02586
2039.01243,0.02413
2036.95282,0.02335
2034.89322,0.02362
2032.83361,0.02402
2030.77400,0.02395
2028.71439,0.02321
2026.65478,0.02312
2024.59517,0.02466
2022.53556,0.02601
2020.47596,0.02583
2018.41635,0.02536
2016.35674,0.02538
2014.29713,0.02538
2012.23752,0.02515
2010.17791,0.02499
2008.11830,0.02505
2006.05870,0.02486
2003.99909,0.02451
2001.93948,0.02481
1999.87987,0.02546
1997.82026,0.02568
1995.76065,0.02549
1993.70105,0.02560
1991.64144,0.02655
1989.58183,0.02722
1987.52222,0.02670
1985.46261,0.02612
1983.40300,0.02616
1981.34339,0.02611
1979.28379,0.02542
1977.22418,0.02438
1975.16457,0.02314
1973.10496,0.02200
1971.04535,0.02184
1968.98574,0.02249
1966.92613,0.02338
1964.86653,0.02413
1962.80692,0.02427
1960.74731,0.02387
1958.68770,0.02362
1956.62809,0.02385
1954.56848,0.02414
1952.50887,0.02392
1950.44927,0.02369
1948.38966,0.02414
1946.33005,0.02478
1944.27044,0.02495
1942.21083,0.02481
1940.15122,0.02487
1938.09162,0.02483
1936.03201,0.02442
1933.97240,0.02430
1931.91279,0.02471
1929.85318,0.02498
1927.79357,0.02485
1925.73396,0.02472
1923.67436,0.02468
1921.61475,0.02465
1919.55514,0.02476
1917.49553,0.02508
1915.43592,0.02535
1913.37631,0.02550
1911.31670,0.02555
1909.25710,0.02546
1907.19749,0.02524
1905.13788,0.02501
1903.07827,0.02489
1901.01866,0.02474
1898.95905,0.02445
1896.89944,0.02422
1894.83984,0.02441
1892.78023,0.02476
1890.72062,0.02490
1888.66101,0.02486
1886.60140,0.02454
1884.54179,0.02406
1882.48219,0.02384
1880.42258,0.02396
1878.36297,0.02420
1876.30336,0.02436
1874.24375,0.02425
1872.18414,0.02389
1870.12453,0.02356
1868.06493,0.02339
1866.00532,0.02338
1863.94571,0.02332
1861.88610,0.02307
1859.82649,0.02284
1857.76688,0.02274
1855.70727,0.02276
1853.64767,0.02284
1851.58806,0.02285
1849.52845,0.02273
1847.46884,0.02260
1845.40923,0.02252
1843.34962,0.02251
1841.29002,0.02262
1839.23041,0.02258
1837.17080,0.02218
1835.11119,0.02176
1833.05158,0.02170
1830.99197,0.02177
1828.93236,0.02157
1826.87276,0.02116
1824.81315,0.02084
1822.75354,0.02081
1820.69393,0.02097
1818.63432,0.02107
1816.57471,0.02097
1814.51510,0.02080
1812.45550,0.02065
1810.39589,0.02053
1808.33628,0.02039
1806.27667,0.02023
1804.21706,0.02009
1802.15745,0.02001
1800.09784,0.01997
1798.03824,0.01990
1795.97863,0.01974
1793.91902,0.01949
1791.85941,0.01930
1789.79980,0.01923
1787.74019,0.01921
1785.68059,0.01914
1783.62098,0.01899
1781.56137,0.01874
1779.50176,0.01846
1777.44215,0.01817
1775.38254,0.01781
1773.32293,0.01749
1771.26333,0.01742
1769.20372,0.01754
1767.14411,0.01759
1765.08450,0.01749
1763.02489,0.01722
1760.96528,0.01687
1758.90567,0.01662
1756.84607,0.01649
1754.78646,0.01642
1752.72685,0.01635
1750.66724,0.01627
1748.60763,0.01610
1746.54802,0.01593
1744.48841,0.01579
1742.42881,0.01557
1740.36920,0.01531
1738.30959,0.01509
1736.24998,0.01490
1734.19037,0.01483
1732.13076,0.01486
1730.07116,0.01478
1728.01155,0.01459
1725.95194,0.01451
1723.89233,0.01456
1721.83272,0.01467
1719.77311,0.01495
1717.71350,0.01551
1715.65390,0.01626
1713.59429,0.01729
1711.53468,0.01892
1709.47507,0.02143
1707.41546,0.02531
1705.35585,0.03074
1703.29624,0.03663
1701.23664,0.04200
1699.17703,0.04592
1697.11742,0.04738
1695.05781,0.04733
1692.99820,0.04720
1690.93859,0.04755
1688.87898,0.04833
1686.81938,0.04943
1684.75977,0.05105
1682.70016,0.05312
1680.64055,0.05513
1678.58094,0.05716
1676.52133,0.05959
1674.46173,0.06236
1672.40212,0.06504
1670.34251,0.06785
1668.28290,0.07087
1666.22329,0.07347
1664.16368,0.07599
1662.10407,0.07912
1660.04447,0.08251
1657.98486,0.08551
1655.92525,0.08842
1653.86564,0.09227
1651.80603,0.09666
1649.74642,0.09983
1647.68681,0.10277
1645.62721,0.10655
1643.56760,0.11031
1641.50799,0.11376
1639.44838,0.11747
1637.38877,0.12213
1635.32916,0.12806
1633.26955,0.13381
1631.20995,0.13860
1629.15034,0.14339
1627.09073,0.14853
1625.03112,0.15354
1622.97151,0.15812
1620.91190,0.16155
1618.85230,0.16354
1616.79269,0.16447
1614.73308,0.16411
1612.67347,0.16220
1610.61386,0.15898
1608.55425,0.15469
1606.49464,0.14946
1604.43504,0.14347
1602.37543,0.13705
1600.31582,0.13059
1598.25621,0.12444
1596.19660,0.11870
1594.13699,0.11332
1592.07738,0.10815
1590.01778,0.10314
1587.95817,0.09842
1585.89856,0.09423
1583.83895,0.09072
1581.77934,0.08784
1579.71973,0.08557
1577.66012,0.08392
1575.60052,0.08292
1573.54091,0.08256
1571.48130,0.08279
1569.42169,0.08366
1567.36208,0.08503
1565.30247,0.08665
1563.24287,0.08832
1561.18326,0.09028
1559.12365,0.09332
1557.06404,0.09679
1555.00443,0.09940
1552.94482,0.10159
1550.88521,0.10394
1548.82561,0.10646
1546.76600,0.10887
1544.70639,0.11119
1542.64678,0.11391
1540.58717,0.11749
1538.52756,0.12112
1536.46795,0.12366
1534.40835,0.12599
1532.34874,0.12888
1530.28913,0.13165
1528.22952,0.13414
1526.16991,0.13656
1524.11030,0.13881
1522.05069,0.14136
1519.99109,0.14456
1517.93148,0.14802
1515.87187,0.15128
1513.81226,0.15358
1511.75265,0.15450
1509.69304,0.15425
1507.63344,0.15317
1505.57383,0.15155
1503.51422,0.14955
1501.45461,0.14706
1499.39500,0.14403
1497.33539,0.14051
1495.27578,0.13677
1493.21618,0.13307
1491.15657,0.12904
1489.09696,0.12446
1487.03735,0.11990
1484.97774,0.11576
1482.91813,0.11194
1480.85852,0.10836
1478.79892,0.10515
1476.73931,0.10228
1474.67970,0.09969
1472.62009,0.09737
1470.56048,0.09538
1468.50087,0.09372
1466.44126,0.09223
1464.38166,0.09096
1462.32205,0.09003
1460.26244,0.08956
1458.20283,0.09007
1456.14322,0.09206
1454.08361,0.09478
1452.02401,0.09755
1449.96440,0.10042
1447.90479,0.10324
1445.84518,0.10550
1443.78557,0.10691
1441.72596,0.10769
1439.66635,0.10798
1437.60675,0.10754
1435.54714,0.10611
1433.48753,0.10382
1431.42792,0.10096
1429.36831,0.09792
1427.30870,0.09523
1425.24909,0.09313
1423.18949,0.09153
1421.12988,0.09035
1419.07027,0.08956
1417.01066,0.08914
1414.95105,0.08897
1412.89144,0.08896
1410.83183,0.08906
1408.77223,0.08910
1406.71262,0.08894
1404.65301,0.08861
1402.59340,0.08818
1400.53379,0.08769
1398.47418,0.08711
1396.41458,0.08643
1394.35497,0.08581
1392.29536,0.08537
1390.23575,0.08497
1388.17614,0.08450
1386.11653,0.08402
1384.05692,0.08362
1381.99732,0.08328
1379.93771,0.08293
1377.87810,0.08256
1375.81849,0.08222
1373.75888,0.08209
1371.69927,0.08226
1369.63966,0.08257
1367.58006,0.08266
1365.52045,0.08213
1363.46084,0.08094
1361.40123,0.07946
1359.34162,0.07811
1357.28201,0.07692
1355.22240,0.07580
1353.16280,0.07483
1351.10319,0.07414
1349.04358,0.07374
1346.98397,0.07350
1344.92436,0.07328
1342.86475,0.07306
1340.80515,0.07299
1338.74554,0.07315
1336.68593,0.07329
1334.62632,0.07327
1332.56671,0.07308
1330.50710,0.07271
1328.44749,0.07218
1326.38789,0.07147
1324.32828,0.07066
1322.26867,0.06990
1320.20906,0.06929
1318.14945,0.06882
1316.08984,0.06850
1314.03023,0.06825
1311.97063,0.06799
1309.91102,0.06767
1307.85141,0.06730
1305.79180,0.06688
1303.73219,0.06645
1301.67258,0.06603
1299.61297,0.06559
1297.55337,0.06515
1295.49376,0.06474
1293.43415,0.06439
1291.37454,0.06417
1289.31493,0.06404
1287.25532,0.06390
1285.19572,0.06372
1283.13611,0.06365
1281.07650,0.06381
1279.01689,0.06424
1276.95728,0.06505
1274.89767,0.06623
1272.83806,0.06765
1270.77846,0.06921
1268.71885,0.07086
1266.65924,0.07249
1264.59963,0.07381
1262.54002,0.07469
1260.48041,0.07525
1258.42080,0.07556
1256.36120,0.07564
1254.30159,0.07566
1252.24198,0.07580
1250.18237,0.07612
1248.12276,0.07661
1246.06315,0.07717
1244.00354,0.07787
1241.94394,0.07883
1239.88433,0.07994
1237.82472,0.08114
1235.76511,0.08259
1233.70550,0.08415
1231.64589,0.08557
1229.58629,0.08671
1227.52668,0.08742
1225.46707,0.08761
1223.40746,0.08746
1221.34785,0.08713
1219.28824,0.08650
1217.22863,0.08554
1215.16903,0.08438
1213.10942,0.08303
1211.04981,0.08141
1208.99020,0.07965
1206.93059,0.07783
1204.87098,0.07589
1202.81137,0.07384
1200.75177,0.07188
1198.69216,0.07011
1196.63255,0.06843
1194.57294,0.06691
1192.51333,0.06559
1190.45372,0.06440
1188.39411,0.06342
1186.33451,0.06261
1184.27490,0.06182
1182.21529,0.06120
1180.15568,0.06096
1178.09607,0.06112
1176.03646,0.06165
1173.97686,0.06244
1171.91725,0.06331
1169.85764,0.06396
1167.79803,0.06420
1165.73842,0.06421
1163.67881,0.06415
1161.61920,0.06401
1159.55960,0.06377
1157.49999,0.06335
1155.44038,0.06267
1153.38077,0.06182
1151.32116,0.06084
1149.26155,0.05981
1147.20194,0.05884
1145.14234,0.05787
1143.08273,0.05682
1141.02312,0.05575
1138.96351,0.05480
1136.90390,0.05396
1134.84429,0.05328
1132.78468,0.05280
1130.72508,0.05238
1128.66547,0.05187
1126.60586,0.05135
1124.54625,0.05089
1122.48664,0.05039
1120.42703,0.04989
1118.36743,0.04955
1116.30782,0.04928
1114.24821,0.04900
1112.18860,0.04877
1110.12899,0.04855
1108.06938,0.04833
1106.00977,0.04817
1103.95017,0.04804
1101.89056,0.04787
1099.83095,0.04759
1097.77134,0.04718
1095.71173,0.04680
1093.65212,0.04663
1091.59251,0.04668
1089.53291,0.04688
1087.47330,0.04723
1085.41369,0.04784
1083.35408,0.04873
1081.29447,0.04981
1079.23486,0.05096
1077.17525,0.05207
1075.11565,0.05315
1073.05604,0.05417
1070.99643,0.05501
1068.93682,0.05566
1066.87721,0.05614
1064.81760,0.05642
1062.75800,0.05649
1060.69839,0.05641
1058.63878,0.05609
1056.57917,0.05559
1054.51956,0.05500
1052.45995,0.05444
1050.40034,0.05403
1048.34074,0.05373
1046.28113,0.05344
1044.22152,0.05320
1042.16191,0.05289
1040.10230,0.05240
1038.04269,0.05186
1035.98308,0.05125
1033.92348,0.05043
1031.86387,0.04954
1029.80426,0.04878
1027.74465,0.04814
1025.68504,0.04743
1023.62543,0.04667
1021.56582,0.04611
1019.50622,0.04595
1017.44661,0.04605
1015.38700,0.04614
1013.32739,0.04604
1011.26778,0.04589
1009.20817,0.04590
1007.14857,0.04598
1005.08896,0.04606
1003.02935,0.04631
1000.96974,0.04669
998.91013,0.04701
996.85052,0.04712
994.79091,0.04690
992.73131,0.04638
990.67170,0.04561
988.61209,0.04474
986.55248,0.04396
984.49287,0.04341
982.43326,0.04324
980.37365,0.04351
978.31405,0.04399
976.25444,0.04438
974.19483,0.04448
972.13522,0.04415
970.07561,0.04353
968.01600,0.04278
965.95639,0.04198
963.89679,0.04127
961.83718,0.04069
959.77757,0.04022
957.71796,0.03970
955.65835,0.03914
953.59874,0.03881
951.53914,0.03860
949.47953,0.03826
947.41992,0.03788
945.36031,0.03764
943.30070,0.03754
941.24109,0.03740
939.18148,0.03714
937.12188,0.03688
935.06227,0.03670
933.00266,0.03663
930.94305,0.03661
928.88344,0.03655
926.82383,0.03647
924.76422,0.03632
922.70462,0.03598
920.64501,0.03550
918.58540,0.03497
916.52579,0.03445
914.46618,0.03399
912.40657,0.03361
910.34696,0.03326
908.28736,0.03291
906.22775,0.03255
904.16814,0.03231
902.10853,0.03220
900.04892,0.03210
897.98931,0.03192
895.92971,0.03175
893.87010,0.03167
891.81049,0.03157
889.75088,0.03133
887.69127,0.03111
885.63166,0.03108
883.57205,0.03110
881.51245,0.03093
879.45284,0.03066
877.39323,0.03041
875.33362,0.03019
873.27401,0.03003
871.21440,0.02986
869.15479,0.02962
867.09519,0.02932
865.03558,0.02901
862.97597,0.02892
860.91636,0.02904
858.85675,0.02919
856.79714,0.02948
854.73753,0.02995
852.67793,0.03026
850.61832,0.03019
848.55871,0.02997
846.49910,0.02971
844.43949,0.02941
842.37988,0.02925
840.32028,0.02928
838.26067,0.02932
836.20106,0.02944
834.14145,0.02961
832.08184,0.02973
830.02223,0.02987
827.96262,0.03009
825.90302,0.03017
823.84341,0.02995
821.78380,0.02969
819.72419,0.02957
817.66458,0.02946
815.60497,0.02930
813.54536,0.02915
811.48576,0.02909
809.42615,0.02902
807.36654,0.02876
805.30693,0.02843
803.24732,0.02825
801.18771,0.02821
799.12810,0.02819
797.06850,0.02806
795.00889,0.02787
792.94928,0.02783
790.88967,0.02800
788.83006,0.02816
786.77045,0.02829
784.71085,0.02857
782.65124,0.02881
780.59163,0.02887
778.53202,0.02898
776.47241,0.02928
774.41280,0.02963
772.35319,0.02994
770.29359,0.03032
768.23398,0.03076
766.17437,0.03109
764.11476,0.03126
762.05515,0.03143
759.99554,0.03154
757.93593,0.03150
755.87633,0.03139
753.81672,0.03142
751.75711,0.03177
749.69750,0.03234
747.63789,0.03295
745.57828,0.03353
743.51867,0.03406
741.45907,0.03462
739.39946,0.03534
737.33985,0.03615
735.28024,0.03684
733.22063,0.03749
731.16102,0.03826
729.10142,0.03912
727.04181,0.03992
724.98220,0.04059
722.92259,0.04121
720.86298,0.04183
718.80337,0.04248
716.74376,0.04297
714.68416,0.04341
712.62455,0.04389
710.56494,0.04442
708.50533,0.04488
706.44572,0.04531
704.38611,0.04593
702.32650,0.04667
700.26690,0.04734
698.20729,0.04785
696.14768,0.04822
694.08807,0.04853
692.02846,0.04876
689.96885,0.04886
687.90924,0.04892
685.84964,0.04908
683.79003,0.04930
681.73042,0.04942
679.67081,0.04943
677.61120,0.04935
675.55159,0.04915
673.49199,0.04891
671.43238,0.04900
669.37277,0.04943
667.31316,0.04800
665.25355,0.04876
663.19394,0.04869
661.13433,0.04860
659.07473,0.04876
657.01512,0.04897
654.95551,0.04915
652.89590,0.04926
650.83629,0.04944
648.77668,0.04977
646.71707,0.05011
644.65747,0.05025
642.59786,0.05037
640.53825,0.05061
638.47864,0.05082
636.41903,0.05095
634.35942,0.05113
632.29981,0.05135
630.24021,0.05143
628.18060,0.05140
626.12099,0.05142
624.06138,0.05158
622.00177,0.05173
619.94216,0.05178
617.88256,0.05172
615.82295,0.05167
613.76334,0.05182
611.70373,0.05204
609.64412,0.05198
607.58451,0.05165
605.52490,0.05120
603.46530,0.05062
601.40569,0.04994
599.34608,0.04926
597.28647,0.04862
595.22686,0.04797
593.16725,0.04735
591.10764,0.04685
589.04804,0.04649
586.98843,0.04613
584.92882,0.04575
582.86921,0.04546
580.80960,0.04528
578.74999,0.04496
576.69039,0.04447
574.63078,0.04415
572.57117,0.04419
570.51156,0.04439
568.45195,0.04457
566.39234,0.04475
564.33273,0.04517
562.27313,0.04608
560.21352,0.04741
558.15391,0.04881
556.09430,0.05006
554.03469,0.05104
551.97508,0.05177
549.91547,0.05243
547.85587,0.05286
545.79626,0.05270
543.73665,0.05205
541.67704,0.05142
539.61743,0.05097
537.55782,0.05044
535.49821,0.04964
533.43861,0.04884
531.37900,0.04835
529.31939,0.04799
527.25978,0.04738
525.20017,0.04676
523.14056,0.04646
521.08096,0.04633
519.02135,0.04610
516.96174,0.04574
514.90213,0.04539
512.84252,0.04511
510.78291,0.04463
508.72330,0.04387
506.66370,0.04313
504.60409,0.04261
502.54448,0.04226
500.48487,0.04202
498.42526,0.04183
496.36565,0.04155
494.30604,0.04105
492.24644,0.04063
490.18683,0.04053
488.12722,0.04064
486.06761,0.04073
484.00800,0.04055
481.94839,0.04002
479.88878,0.03935
477.82918,0.03880
475.76957,0.03833
473.70996,0.03778
471.65035,0.03725
469.59074,0.03702
467.53113,0.03698
465.47153,0.03672
463.41192,0.03610
461.35231,0.03541
459.29270,0.03504
457.23309,0.03499
455.17348,0.03495
453.11387,0.03480
451.05427,0.03473
448.99466,0.03479
446.93505,0.03471
444.87544,0.03425
442.81583,0.03373
440.75622,0.03359
438.69661,0.03365
436.63701,0.03364
434.57740,0.03358
432.51779,0.03358
430.45818,0.03385
428.39857,0.03434
426.33896,0.03468
424.27935,0.03483
422.21975,0.03500
420.16014,0.03509
418.10053,0.03472
416.04092,0.03413
413.98131,0.03361
411.92170,0.03272
409.86210,0.03156
407.80249,0.03081
405.74288,0.03042
403.68327,0.02985
401.62366,0.02939
399.56405,0.02956
