3997.66060,0.06847
3995.60101,0.06816
3993.54142,0.06812
3991.48183,0.06840
3989.42224,0.06834
3987.36265,0.06820
3985.30307,0.06825
3983.24348,0.06847
3981.18389,0.06873
3979.12430,0.06877
3977.06471,0.06862
3975.00513,0.06858
3972.94554,0.06871
3970.88595,0.06876
3968.82636,0.06846
3966.76677,0.06807
3964.70719,0.06805
3962.64760,0.06793
3960.58801,0.06764
3958.52842,0.06788
3956.46883,0.06800
3954.40924,0.06749
3952.34966,0.06721
3950.29007,0.06747
3948.23048,0.06767
3946.17089,0.06736
3944.11130,0.06695
3942.05172,0.06686
3939.99213,0.06654
3937.93254,0.06600
3935.87295,0.06610
3933.81336,0.06647
3931.75377,0.06635
3929.69419,0.06610
3927.63460,0.06627
3925.57501,0.06691
3923.51542,0.06735
3921.45583,0.06697
3919.39625,0.06640
3917.33666,0.06652
3915.27707,0.06676
3913.21748,0.06635
3911.15789,0.06604
3909.09831,0.06643
3907.03872,0.06660
3904.97913,0.06632
3902.91954,0.06627
3900.85995,0.06649
3898.80036,0.06674
3896.74078,0.06670
3894.68119,0.06628
3892.62160,0.06589
3890.56201,0.06581
3888.50242,0.06573
3886.44284,0.06578
3884.38325,0.06615
3882.32366,0.06646
3880.26407,0.06670
3878.20448,0.06662
3876.14489,0.06582
3874.08531,0.06463
3872.02572,0.06402
3869.96613,0.06421
3867.90654,0.06423
3865.84695,0.06412
3863.78737,0.06478
3861.72778,0.06544
3859.66819,0.06482
3857.60860,0.06355
3855.54901,0.06266
3853.48943,0.06318
3851.42984,0.06415
3849.37025,0.06380
3847.31066,0.06308
3845.25107,0.06327
3843.19148,0.06424
3841.13190,0.06465
3839.07231,0.06454
3837.01272,0.06432
3834.95313,0.06353
3832.89354,0.06286
3830.83396,0.06295
3828.77437,0.06300
3826.71478,0.06253
3824.65519,0.06222
3822.59560,0.06225
3820.53601,0.06250
3818.47643,0.06277
3816.41684,0.06315
3814.35725,0.06342
3812.29766,0.06304
3810.23807,0.06258
3808.17849,0.06239
3806.11890,0.06243
3804.05931,0.06233
3801.99972,0.06245
3799.94013,0.06339
3797.88055,0.06367
3795.82096,0.06309
3793.76137,0.06269
3791.70178,0.06238
3789.64219,0.06210
3787.58260,0.06168
3785.52302,0.06091
3783.46343,0.06053
3781.40384,0.06063
3779.34425,0.06068
3777.28466,0.06070
3775.22508,0.06063
3773.16549,0.06071
3771.10590,0.06110
3769.04631,0.06108
3766.98672,0.06064
3764.92713,0.06032
3762.86755,0.05981
3760.80796,0.05924
3758.74837,0.05919
3756.68878,0.05917
3754.62919,0.05910
3752.56961,0.05976
3750.51002,0.06056
3748.45043,0.05979
3746.39084,0.05813
3744.33125,0.05777
3742.27167,0.05864
3740.21208,0.05838
3738.15249,0.05739
3736.09290,0.05683
3734.03331,0.05690
3731.97372,0.05740
3729.91414,0.05791
3727.85455,0.05804
3725.79496,0.05826
3723.73537,0.05869
3721.67578,0.05867
3719.61620,0.05849
3717.55661,0.05873
3715.49702,0.05887
3713.43743,0.05842
3711.37784,0.05738
3709.31825,0.05656
3707.25867,0.05696
3705.19908,0.05772
3703.13949,0.05802
3701.07990,0.05804
3699.02031,0.05806
3696.96073,0.05780
3694.90114,0.05684
3692.84155,0.05619
3690.78196,0.05694
3688.72237,0.05744
3686.66279,0.05655
3684.60320,0.05637
3682.54361,0.05692
3680.48402,0.05710
3678.42443,0.05725
3676.36484,0.05746
3674.30526,0.05725
3672.24567,0.05701
3670.18608,0.05718
3668.12649,0.05765
3666.06690,0.05772
3664.00732,0.05729
3661.94773,0.05711
3659.88814,0.05715
3657.82855,0.05663
3655.76896,0.05636
3653.70937,0.05700
3651.64979,0.05759
3649.59020,0.05793
3647.53061,0.05771
3645.47102,0.05697
3643.41143,0.05676
3641.35185,0.05672
3639.29226,0.05618
3637.23267,0.05599
3635.17308,0.05693
3633.11349,0.05804
3631.05391,0.05819
3628.99432,0.05790
3626.93473,0.05795
3624.87514,0.05802
3622.81555,0.05789
3620.75596,0.05813
3618.69638,0.05942
3616.63679,0.06029
3614.57720,0.05970
3612.51761,0.05885
3610.45802,0.05858
3608.39844,0.05902
3606.33885,0.05977
3604.27926,0.06022
3602.21967,0.06052
3600.16008,0.06067
3598.10049,0.06057
3596.04091,0.06076
3593.98132,0.06138
3591.92173,0.06179
3589.86214,0.06200
3587.80255,0.06237
3585.74297,0.06272
3583.68338,0.06296
3581.62379,0.06319
3579.56420,0.06328
3577.50461,0.06332
3575.44503,0.06328
3573.38544,0.06310
3571.32585,0.06327
3569.26626,0.06396
3567.20667,0.06486
3565.14708,0.06556
3563.08750,0.06588
3561.02791,0.06584
3558.96832,0.06543
3556.90873,0.06529
3554.84914,0.06591
3552.78956,0.06671
3550.72997,0.06710
3548.67038,0.06751
3546.61079,0.06835
3544.55120,0.06887
3542.49161,0.06876
3540.43203,0.06881
3538.37244,0.06943
3536.31285,0.07025
3534.25326,0.07092
3532.19367,0.07125
3530.13409,0.07104
3528.07450,0.07104
3526.01491,0.07163
3523.95532,0.07220
3521.89573,0.07280
3519.83615,0.07339
3517.77656,0.07378
3515.71697,0.07393
3513.65738,0.07387
3511.59779,0.07423
3509.53820,0.07530
3507.47862,0.07620
3505.41903,0.07623
3503.35944,0.07620
3501.29985,0.07669
3499.24026,0.07732
3497.18068,0.07774
3495.12109,0.07793
3493.06150,0.07813
3491.00191,0.07849
3488.94232,0.07904
3486.88273,0.07973
3484.82315,0.08010
3482.76356,0.08044
3480.70397,0.08105
3478.64438,0.08122
3476.58479,0.08109
3474.52521,0.08138
3472.46562,0.08185
3470.40603,0.08229
3468.34644,0.08294
3466.28685,0.08369
3464.22727,0.08389
3462.16768,0.08358
3460.10809,0.08367
3458.04850,0.08456
3455.98891,0.08574
3453.92932,0.08636
3451.86974,0.08632
3449.81015,0.08633
3447.75056,0.08673
3445.69097,0.08715
3443.63138,0.08727
3441.57180,0.08729
3439.51221,0.08762
3437.45262,0.08836
3435.39303,0.08913
3433.33344,0.08951
3431.27385,0.08963
3429.21427,0.08985
3427.15468,0.09018
3425.09509,0.09033
3423.03550,0.09056
3420.97591,0.09125
3418.91633,0.09218
3416.85674,0.09300
3414.79715,0.09362
3412.73756,0.09392
3410.67797,0.09406
3408.61839,0.09421
3406.55880,0.09399
3404.49921,0.09369
3402.43962,0.09410
3400.38003,0.09503
3398.32044,0.09589
3396.26086,0.09665
3394.20127,0.09709
3392.14168,0.09720
3390.08209,0.09739
3388.02250,0.09795
3385.96292,0.09871
3383.90333,0.09905
3381.84374,0.09916
3379.78415,0.09969
3377.72456,0.10063
3375.66497,0.10161
3373.60539,0.10233
3371.54580,0.10282
3369.48621,0.10337
3367.42662,0.10419
3365.36703,0.10487
3363.30745,0.10532
3361.24786,0.10594
3359.18827,0.10671
3357.12868,0.10755
3355.06909,0.10869
3353.00951,0.10992
3350.94992,0.11099
3348.89033,0.11182
3346.83074,0.11248
3344.77115,0.11351
3342.71156,0.11478
3340.65198,0.11525
3338.59239,0.11527
3336.53280,0.11632
3334.47321,0.11817
3332.41362,0.11968
3330.35404,0.12092
3328.29445,0.12199
3326.23486,0.12279
3324.17527,0.12399
3322.11568,0.12574
3320.05609,0.12743
3317.99651,0.12880
3315.93692,0.13005
3313.87733,0.13155
3311.81774,0.13343
3309.75815,0.13575
3307.69857,0.13809
3305.63898,0.13981
3303.57939,0.14109
3301.51980,0.14253
3299.46021,0.14397
3297.40063,0.14517
3295.34104,0.14667
3293.28145,0.14859
3291.22186,0.15052
3289.16227,0.15242
3287.10268,0.15434
3285.04310,0.15612
3282.98351,0.15744
3280.92392,0.15838
3278.86433,0.15927
3276.80474,0.16018
3274.74516,0.16073
3272.68557,0.16075
3270.62598,0.16068
3268.56639,0.16071
3266.50680,0.16051
3264.44721,0.15985
3262.38763,0.15917
3260.32804,0.15893
3258.26845,0.15862
3256.20886,0.15769
3254.14927,0.15652
3252.08969,0.15550
3250.03010,0.15405
3247.97051,0.15201
3245.91092,0.15007
3243.85133,0.14855
3241.79175,0.14739
3239.73216,0.14639
3237.67257,0.14546
3235.61298,0.14448
3233.55339,0.14336
3231.49380,0.14196
3229.43422,0.14031
3227.37463,0.13880
3225.31504,0.13797
3223.25545,0.13791
3221.19586,0.13785
3219.13628,0.13715
3217.07669,0.13610
3215.01710,0.13510
3212.95751,0.13438
3210.89792,0.13393
3208.83833,0.13349
3206.77875,0.13259
3204.71916,0.13145
3202.65957,0.13084
3200.59998,0.13048
3198.54039,0.12958
3196.48081,0.12832
3194.42122,0.12752
3192.36163,0.12723
3190.30204,0.12676
3188.24245,0.12590
3186.18287,0.12495
3184.12328,0.12404
3182.06369,0.12311
3180.00410,0.12206
3177.94451,0.12102
3175.88492,0.12015
3173.82534,0.11934
3171.76575,0.11849
3169.70616,0.11744
3167.64657,0.11622
3165.58698,0.11545
3163.52740,0.11495
3161.46781,0.11396
3159.40822,0.11282
3157.34863,0.11205
3155.28904,0.11130
3153.22945,0.11033
3151.16987,0.10944
3149.11028,0.10883
3147.05069,0.10815
3144.99110,0.10726
3142.93151,0.10648
3140.87193,0.10588
3138.81234,0.10524
3136.75275,0.10433
3134.69316,0.10354
3132.63357,0.10329
3130.57399,0.10306
3128.51440,0.10234
3126.45481,0.10141
3124.39522,0.10063
3122.33563,0.10000
3120.27604,0.09954
3118.21646,0.09931
3116.15687,0.09926
3114.09728,0.09900
3112.03769,0.09860
3109.97810,0.09833
3107.91852,0.09800
3105.85893,0.09770
3103.79934,0.09766
3101.73975,0.09761
3099.68016,0.09764
3097.62057,0.09774
3095.56099,0.09743
3093.50140,0.09714
3091.44181,0.09748
3089.38222,0.09785
3087.32263,0.09771
3085.26305,0.09757
3083.20346,0.09770
3081.14387,0.09809
3079.08428,0.09847
3077.02469,0.09838
3074.96511,0.09805
3072.90552,0.09804
3070.84593,0.09808
3068.78634,0.09798
3066.72675,0.09808
3064.66716,0.09827
3062.60758,0.09820
3060.54799,0.09772
3058.48840,0.09722
3056.42881,0.09697
3054.36922,0.09677
3052.30964,0.09662
3050.25005,0.09615
3048.19046,0.09528
3046.13087,0.09460
3044.07128,0.09442
3042.01169,0.09438
3039.95211,0.09378
3037.89252,0.09288
3035.83293,0.09240
3033.77334,0.09199
3031.71375,0.09144
3029.65417,0.09123
3027.59458,0.09100
3025.53499,0.09022
3023.47540,0.08923
3021.41581,0.08832
3019.35623,0.08751
3017.29664,0.08691
3015.23705,0.08653
3013.17746,0.08634
3011.11787,0.08611
3009.05828,0.08568
3006.99870,0.08537
3004.93911,0.08528
3002.87952,0.08500
3000.81993,0.08454
2998.76034,0.08438
2996.70076,0.08460
2994.64117,0.08488
2992.58158,0.08512
2990.52199,0.08559
2988.46240,0.08614
2986.40281,0.08643
2984.34323,0.08674
2982.28364,0.08743
2980.22405,0.08836
2978.16446,0.08906
2976.10487,0.08961
2974.04529,0.09038
2971.98570,0.09128
2969.92611,0.09205
2967.86652,0.09261
2965.80693,0.09310
2963.74735,0.09391
2961.68776,0.09496
2959.62817,0.09575
2957.56858,0.09616
2955.50899,0.09606
2953.44940,0.09535
2951.38982,0.09460
2949.33023,0.09433
2947.27064,0.09440
2945.21105,0.09466
2943.15146,0.09522
2941.09188,0.09577
2939.03229,0.09627
2936.97270,0.09698
2934.91311,0.09773
2932.85352,0.09831
2930.79393,0.09902
2928.73435,0.09998
2926.67476,0.10048
2924.61517,0.10013
2922.55558,0.09940
2920.49599,0.09851
2918.43641,0.09756
2916.37682,0.09679
2914.31723,0.09606
2912.25764,0.09517
2910.19805,0.09414
2908.13847,0.09307
2906.07888,0.09207
2904.01929,0.09122
2901.95970,0.09059
2899.90011,0.09007
2897.84052,0.08959
2895.78094,0.08913
2893.72135,0.08852
2891.66176,0.08792
2889.60217,0.08776
2887.54258,0.08800
2885.48300,0.08801
2883.42341,0.08793
2881.36382,0.08834
2879.30423,0.08889
2877.24464,0.08931
2875.18505,0.08971
2873.12547,0.08986
2871.06588,0.08966
2869.00629,0.08935
2866.94670,0.08886
2864.88711,0.08813
2862.82753,0.08748
2860.76794,0.08700
2858.70835,0.08661
2856.64876,0.08637
2854.58917,0.08651
2852.52959,0.08662
2850.47000,0.08617
2848.41041,0.08539
2846.35082,0.08455
2844.29123,0.08359
2842.23164,0.08255
2840.17206,0.08164
2838.11247,0.08091
2836.05288,0.08035
2833.99329,0.07997
2831.93370,0.07959
2829.87412,0.07920
2827.81453,0.07892
2825.75494,0.07883
2823.69535,0.07871
2821.63576,0.07838
2819.57617,0.07809
2817.51659,0.07809
2815.45700,0.07817
2813.39741,0.07781
2811.33782,0.07710
2809.27823,0.07665
2807.21865,0.07667
2805.15906,0.07680
2803.09947,0.07677
2801.03988,0.07655
2798.98029,0.07613
2796.92071,0.07564
2794.86112,0.07536
2792.80153,0.07526
2790.74194,0.07506
2788.68235,0.07472
2786.62276,0.07442
2784.56318,0.07440
2782.50359,0.07458
2780.44400,0.07449
2778.38441,0.07409
2776.32482,0.07375
2774.26524,0.07348
2772.20565,0.07327
2770.14606,0.07320
2768.08647,0.07314
2766.02688,0.07299
2763.96729,0.07279
2761.90771,0.07261
2759.84812,0.07238
2757.78853,0.07226
2755.72894,0.07224
2753.66935,0.07201
2751.60977,0.07171
2749.55018,0.07149
2747.49059,0.07127
2745.43100,0.07110
2743.37141,0.07105
2741.31183,0.07106
2739.25224,0.07106
2737.19265,0.07106
2735.13306,0.07095
2733.07347,0.07064
2731.01388,0.07022
2728.95430,0.06990
2726.89471,0.06975
2724.83512,0.06974
2722.77553,0.06968
2720.71594,0.06954
2718.65636,0.06937
2716.59677,0.06908
2714.53718,0.06870
2712.47759,0.06850
2710.41800,0.06850
2708.35841,0.06844
2706.29883,0.06835
2704.23924,0.06838
2702.17965,0.06835
2700.12006,0.06798
2698.06047,0.06737
2696.00089,0.06718
2693.94130,0.06755
2691.88171,0.06785
2689.82212,0.06772
2687.76253,0.06749
2685.70295,0.06737
2683.64336,0.06718
2681.58377,0.06700
2679.52418,0.06691
2677.46459,0.06674
2675.40500,0.06648
2673.34542,0.06632
2671.28583,0.06631
2669.22624,0.06631
2667.16665,0.06632
2665.10706,0.06630
2663.04748,0.06610
2660.98789,0.06574
2658.92830,0.06551
2656.86871,0.06553
2654.80912,0.06557
2652.74953,0.06540
2650.68995,0.06508
2648.63036,0.06495
2646.57077,0.06506
2644.51118,0.06521
2642.45159,0.06503
2640.39201,0.06458
2638.33242,0.06442
2636.27283,0.06437
2634.21324,0.06394
2632.15365,0.06333
2630.09407,0.06302
2628.03448,0.06311
2625.97489,0.06306
2623.91530,0.06274
2621.85571,0.06267
2619.79612,0.06291
2617.73654,0.06291
2615.67695,0.06243
2613.61736,0.06173
2611.55777,0.06128
2609.49818,0.06126
2607.43860,0.06155
2605.37901,0.06181
2603.31942,0.06166
2601.25983,0.06120
2599.20024,0.06075
2597.14065,0.06033
2595.08107,0.05989
2593.02148,0.05967
2590.96189,0.05986
2588.90230,0.06011
2586.84271,0.05986
2584.78313,0.05946
2582.72354,0.05942
2580.66395,0.05940
2578.60436,0.05949
2576.54477,0.05989
2574.48519,0.06006
2572.42560,0.05945
2570.36601,0.05857
2568.30642,0.05834
2566.24683,0.05847
2564.18724,0.05832
2562.12766,0.05822
2560.06807,0.05846
2558.00848,0.05856
2555.94889,0.05811
2553.88930,0.05745
2551.82972,0.05710
2549.77013,0.05715
2547.71054,0.05717
2545.65095,0.05689
2543.59136,0.05672
2541.53177,0.05675
2539.47219,0.05677
2537.41260,0.05681
2535.35301,0.05673
2533.29342,0.05635
2531.23383,0.05597
2529.17425,0.05578
2527.11466,0.05568
2525.05507,0.05560
2522.99548,0.05581
2520.93589,0.05614
2518.87631,0.05609
2516.81672,0.05573
2514.75713,0.05551
2512.69754,0.05544
2510.63795,0.05516
2508.57836,0.05499
2506.51878,0.05508
2504.45919,0.05530
2502.39960,0.05562
2500.34001,0.05593
2498.28042,0.05577
2496.22084,0.05529
2494.16125,0.05535
2492.10166,0.05583
2490.04207,0.05572
2487.98248,0.05489
2485.92289,0.05429
2483.86331,0.05446
2481.80372,0.05492
2479.74413,0.05517
2477.68454,0.05506
2475.62495,0.05472
2473.56537,0.05458
2471.50578,0.05443
2469.44619,0.05396
2467.38660,0.05345
2465.32701,0.05294
2463.26743,0.05272
2461.20784,0.05299
2459.14825,0.05351
2457.08866,0.05402
2455.02907,0.05418
2452.96948,0.05391
2450.90990,0.05368
2448.85031,0.05375
2446.79072,0.05375
2444.73113,0.05336
2442.67154,0.05274
2440.61196,0.05221
2438.55237,0.05207
2436.49278,0.05226
2434.43319,0.05243
2432.37360,0.05245
2430.31401,0.05236
2428.25443,0.05233
2426.19484,0.05224
2424.13525,0.05201
2422.07566,0.05203
2420.01607,0.05218
2417.95649,0.05199
2415.89690,0.05160
2413.83731,0.05152
2411.77772,0.05187
2409.71813,0.05212
2407.65855,0.05197
2405.59896,0.05158
2403.53937,0.05131
2401.47978,0.05136
2399.42019,0.05156
2397.36060,0.05164
2395.30102,0.05166
2393.24143,0.05184
2391.18184,0.05192
2389.12225,0.05160
2387.06266,0.05127
2385.00308,0.05112
2382.94349,0.05091
2380.88390,0.05063
2378.82431,0.05063
2376.76472,0.05071
2374.70513,0.05056
2372.64555,0.05014
2370.58596,0.04965
2368.52637,0.04949
2366.46678,0.04943
2364.40719,0.04924
2362.34761,0.04958
2360.28802,0.05069
2358.22843,0.05148
2356.16884,0.05123
2354.10925,0.05096
2352.04967,0.05099
2349.99008,0.05070
2347.93049,0.05026
2345.87090,0.04995
2343.81131,0.04966
2341.75172,0.04939
2339.69214,0.04943
2337.63255,0.04991
2335.57296,0.05054
2333.51337,0.05079
2331.45378,0.05046
2329.39420,0.05035
2327.33461,0.05084
2325.27502,0.05111
2323.21543,0.05072
2321.15584,0.05026
2319.09625,0.05003
2317.03667,0.04990
2314.97708,0.04960
2312.91749,0.04913
2310.85790,0.04906
2308.79831,0.04942
2306.73873,0.04928
2304.67914,0.04860
2302.61955,0.04814
2300.55996,0.04799
2298.50037,0.04788
2296.44079,0.04762
2294.38120,0.04708
2292.32161,0.04654
2290.26202,0.04648
2288.20243,0.04696
2286.14284,0.04728
2284.08326,0.04722
2282.02367,0.04697
2279.96408,0.04653
2277.90449,0.04631
2275.84490,0.04643
2273.78532,0.04625
2271.72573,0.04546
2269.66614,0.04447
2267.60655,0.04381
2265.54696,0.04347
2263.48737,0.04366
2261.42779,0.04448
2259.36820,0.04512
2257.30861,0.04499
2255.24902,0.04448
2253.18943,0.04395
2251.12985,0.04360
2249.07026,0.04351
2247.01067,0.04323
2244.95108,0.04278
2242.89149,0.04246
2240.83191,0.04206
2238.77232,0.04154
2236.71273,0.04125
2234.65314,0.04149
2232.59355,0.04179
2230.53396,0.04147
2228.47438,0.04080
2226.41479,0.04014
2224.35520,0.03984
2222.29561,0.04031
2220.23602,0.04069
2218.17644,0.04050
2216.11685,0.04013
2214.05726,0.03976
2211.99767,0.03976
2209.93808,0.03950
2207.87849,0.03884
2205.81891,0.03884
2203.75932,0.03917
2201.69973,0.03903
2199.64014,0.03876
2197.58055,0.03889
2195.52097,0.03911
2193.46138,0.03898
2191.40179,0.03893
2189.34220,0.03908
2187.28261,0.03904
2185.22303,0.03865
2183.16344,0.03745
2181.10385,0.03640
2179.04426,0.03670
2176.98467,0.03691
2174.92508,0.03675
2172.86550,0.03681
2170.80591,0.03615
2168.74632,0.03514
2166.68673,0.03524
2164.62714,0.03648
2162.56756,0.03728
2160.50797,0.03583
2158.44838,0.03310
2156.38879,0.03215
2154.32920,0.03292
2152.26961,0.03373
2150.21003,0.03424
2148.15044,0.03497
2146.09085,0.03596
2144.03126,0.03648
2141.97167,0.03670
2139.91209,0.03720
2137.85250,0.03747
2135.79291,0.03728
2133.73332,0.03724
2131.67373,0.03759
2129.61415,0.03767
2127.55456,0.03738
2125.49497,0.03736
2123.43538,0.03784
2121.37579,0.03854
2119.31620,0.03879
2117.25662,0.03876
2115.19703,0.03886
2113.13744,0.03865
2111.07785,0.03806
2109.01826,0.03757
2106.95868,0.03751
2104.89909,0.03774
2102.83950,0.03784
2100.77991,0.03784
2098.72032,0.03807
2096.66073,0.03799
2094.60115,0.03769
2092.54156,0.03807
2090.48197,0.03877
2088.42238,0.03896
2086.36279,0.03856
2084.30321,0.03825
2082.24362,0.03824
2080.18403,0.03784
2078.12444,0.03712
2076.06485,0.03680
2074.00527,0.03667
2071.94568,0.03627
2069.88609,0.03590
2067.82650,0.03576
2065.76691,0.03555
2063.70732,0.03504
2061.64774,0.03446
2059.58815,0.03422
2057.52856,0.03431
2055.46897,0.03465
2053.40938,0.03534
2051.34980,0.03537
2049.29021,0.03401
2047.23062,0.03251
2045.17103,0.03175
2043.11144,0.03151
2041.05185,0.03126
2038.99227,0.03118
2036.93268,0.03161
2034.87309,0.03160
2032.81350,0.03043
2030.75391,0.02936
2028.69433,0.02941
2026.63474,0.02923
2024.57515,0.02852
2022.51556,0.02873
2020.45597,0.02998
2018.39639,0.03080
2016.33680,0.02994
2014.27721,0.02860
2012.21762,0.02845
2010.15803,0.02855
2008.09844,0.02811
2006.03886,0.02796
2003.97927,0.02849
2001.91968,0.02931
1999.86009,0.03005
1997.80050,0.03064
1995.74092,0.03102
1993.68133,0.03117
1991.62174,0.03087
1989.56215,0.02998
1987.50256,0.02927
1985.44297,0.02923
1983.38339,0.02937
1981.32380,0.02894
1979.26421,0.02804
1977.20462,0.02788
1975.14503,0.02868
1973.08545,0.02935
1971.02586,0.02986
1968.96627,0.03021
1966.90668,0.02987
1964.84709,0.02889
1962.78751,0.02750
1960.72792,0.02664
1958.66833,0.02711
1956.60874,0.02812
1954.54915,0.02883
1952.48956,0.02928
1950.42998,0.02960
1948.37039,0.02952
1946.31080,0.02900
1944.25121,0.02879
1942.19162,0.02925
1940.13204,0.02981
1938.07245,0.02992
1936.01286,0.02958
1933.95327,0.02927
1931.89368,0.02947
1929.83409,0.02986
1927.77451,0.02983
1925.71492,0.02967
1923.65533,0.02996
1921.59574,0.03034
1919.53615,0.03020
1917.47657,0.02988
1915.41698,0.02976
1913.35739,0.02961
1911.29780,0.02935
1909.23821,0.02935
1907.17863,0.02985
1905.11904,0.03031
1903.05945,0.03038
1900.99986,0.03036
1898.94027,0.03029
1896.88068,0.02991
1894.82110,0.02943
1892.76151,0.02927
1890.70192,0.02942
1888.64233,0.02955
1886.58274,0.02939
1884.52316,0.02908
1882.46357,0.02885
1880.40398,0.02876
1878.34439,0.02861
1876.28480,0.02828
1874.22521,0.02802
1872.16563,0.02785
1870.10604,0.02761
1868.04645,0.02773
1865.98686,0.02823
1863.92727,0.02824
1861.86769,0.02767
1859.80810,0.02737
1857.74851,0.02753
1855.68892,0.02760
1853.62933,0.02757
1851.56975,0.02776
1849.51016,0.02798
1847.45057,0.02785
1845.39098,0.02772
1843.33139,0.02771
1841.27180,0.02754
1839.21222,0.02740
1837.15263,0.02727
1835.09304,0.02701
1833.03345,0.02682
1830.97386,0.02669
1828.91428,0.02653
1826.85469,0.02645
1824.79510,0.02632
1822.73551,0.02600
1820.67592,0.02560
1818.61633,0.02520
1816.55675,0.02493
1814.49716,0.02499
1812.43757,0.02540
1810.37798,0.02569
1808.31839,0.02547
1806.25881,0.02506
1804.19922,0.02481
1802.13963,0.02461
1800.08004,0.02447
1798.02045,0.02440
1795.96087,0.02418
1793.90128,0.02394
1791.84169,0.02379
1789.78210,0.02357
1787.72251,0.02337
1785.66292,0.02324
1783.60334,0.02303
1781.54375,0.02282
1779.48416,0.02276
1777.42457,0.02265
1775.36498,0.02238
1773.30540,0.02206
1771.24581,0.02180
1769.18622,0.02170
1767.12663,0.02167
1765.06704,0.02166
1763.00745,0.02164
1760.94787,0.02158
1758.88828,0.02142
1756.82869,0.02125
1754.76910,0.02131
1752.70951,0.02140
1750.64993,0.02139
1748.59034,0.02141
1746.53075,0.02137
1744.47116,0.02114
1742.41157,0.02095
1740.35199,0.02080
1738.29240,0.02052
1736.23281,0.02019
1734.17322,0.01979
1732.11363,0.01929
1730.05404,0.01889
1727.99446,0.01868
1725.93487,0.01848
1723.87528,0.01819
1721.81569,0.01786
1719.75610,0.01769
1717.69652,0.01789
1715.63693,0.01839
1713.57734,0.01888
1711.51775,0.01941
1709.45816,0.02022
1707.39857,0.02172
1705.33899,0.02443
1703.27940,0.02783
1701.21981,0.03256
1699.16022,0.03849
1697.10063,0.04230
1695.04105,0.04482
1692.98146,0.04715
1690.92187,0.04958
1688.86228,0.05240
1686.80269,0.05515
1684.74311,0.05897
1682.68352,0.06391
1680.62393,0.06766
1678.56434,0.07103
1676.50475,0.07492
1674.44516,0.07943
1672.38558,0.08369
1670.32599,0.08849
1668.26640,0.09450
1666.20681,0.09974
1664.14722,0.10480
1662.08764,0.11096
1660.02805,0.11677
1657.96846,0.12123
1655.90887,0.12462
1653.84928,0.12834
1651.78969,0.13225
1649.73011,0.13370
1647.67052,0.13441
1645.61093,0.13525
1643.55134,0.13544
1641.49175,0.13510
1639.43217,0.13454
1637.37258,0.13398
1635.31299,0.13375
1633.25340,0.13372
1631.19381,0.13374
1629.13423,0.13430
1627.07464,0.13569
1625.01505,0.13766
1622.95546,0.14037
1620.89587,0.14302
1618.83628,0.14479
1616.77670,0.14610
1614.71711,0.14617
1612.65752,0.14423
1610.59793,0.14068
1608.53834,0.13594
1606.47876,0.13056
1604.41917,0.12489
1602.35958,0.11895
1600.29999,0.11298
1598.24040,0.10729
1596.18081,0.10199
1594.12123,0.09697
1592.06164,0.09207
1590.00205,0.08739
1587.94246,0.08322
1585.88287,0.07966
1583.82329,0.07665
1581.76370,0.07405
1579.70411,0.07186
1577.64452,0.07020
1575.58493,0.06917
1573.52535,0.06869
1571.46576,0.06854
1569.40617,0.06904
1567.34658,0.07016
1565.28699,0.07160
1563.22740,0.07327
1561.16782,0.07523
1559.10823,0.07909
1557.04864,0.08429
1554.98905,0.08848
1552.92946,0.09273
1550.86988,0.09728
1548.81029,0.10194
1546.75070,0.10604
1544.69111,0.10961
1542.63152,0.11306
1540.57193,0.11703
1538.51235,0.12103
1536.45276,0.12312
1534.39317,0.12474
1532.33358,0.12685
1530.27399,0.12853
1528.21441,0.12983
1526.15482,0.13129
1524.09523,0.13277
1522.03564,0.13455
1519.97605,0.13682
1517.91647,0.13891
1515.85688,0.14055
1513.79729,0.14119
1511.73770,0.14062
1509.67811,0.13938
1507.61852,0.13766
1505.55894,0.13521
1503.49935,0.13246
1501.43976,0.12956
1499.38017,0.12634
1497.32058,0.12278
1495.26100,0.11889
1493.20141,0.11495
1491.14182,0.11064
1489.08223,0.10589
1487.02264,0.10144
1484.96305,0.09749
1482.90347,0.09395
1480.84388,0.09077
1478.78429,0.08813
1476.72470,0.08609
1474.66511,0.08467
1472.60553,0.08411
1470.54594,0.08418
1468.48635,0.08415
1466.42676,0.08397
1464.36717,0.08398
1462.30759,0.08408
1460.24800,0.08429
1458.18841,0.08522
1456.12882,0.08706
1454.06923,0.08827
1452.00964,0.08864
1449.95006,0.08854
1447.89047,0.08814
1445.83088,0.08756
1443.77129,0.08667
1441.71170,0.08549
1439.65212,0.08418
1437.59253,0.08270
1435.53294,0.08109
1433.47335,0.07966
1431.41376,0.07834
1429.35417,0.07721
1427.29459,0.07653
1425.23500,0.07622
1423.17541,0.07617
1421.11582,0.07634
1419.05623,0.07679
1416.99665,0.07733
1414.93706,0.07761
1412.87747,0.07775
1410.81788,0.07782
1408.75829,0.07770
1406.69871,0.07743
1404.63912,0.07711
1402.57953,0.07664
1400.51994,0.07604
1398.46035,0.07551
1396.40076,0.07515
1394.34118,0.07495
1392.28159,0.07485
1390.22200,0.07481
1388.16241,0.07495
1386.10282,0.07518
1384.04324,0.07522
1381.98365,0.07501
1379.92406,0.07469
1377.86447,0.07436
1375.80488,0.07396
1373.74529,0.07349
1371.68571,0.07306
1369.62612,0.07263
1367.56653,0.07211
1365.50694,0.07145
1363.44735,0.07060
1361.38777,0.06973
1359.32818,0.06898
1357.26859,0.06829
1355.20900,0.06768
1353.14941,0.06727
1351.08983,0.06698
1349.03024,0.06673
1346.97065,0.06656
1344.91106,0.06646
1342.85147,0.06644
1340.79188,0.06659
1338.73230,0.06680
1336.67271,0.06689
1334.61312,0.06699
1332.55353,0.06714
1330.49394,0.06722
1328.43436,0.06715
1326.37477,0.06700
1324.31518,0.06682
1322.25559,0.06667
1320.19600,0.06665
1318.13641,0.06680
1316.07683,0.06699
1314.01724,0.06721
1311.95765,0.06747
1309.89806,0.06764
1307.83847,0.06773
1305.77889,0.06788
1303.71930,0.06797
1301.65971,0.06784
1299.60012,0.06762
1297.54053,0.06752
1295.48095,0.06749
1293.42136,0.06733
1291.36177,0.06701
1289.30218,0.06668
1287.24259,0.06646
1285.18300,0.06624
1283.12342,0.06592
1281.06383,0.06566
1279.00424,0.06548
1276.94465,0.06529
1274.88506,0.06508
1272.82548,0.06492
1270.76589,0.06490
1268.70630,0.06499
1266.64671,0.06503
1264.58712,0.06503
1262.52753,0.06517
1260.46795,0.06557
1258.40836,0.06612
1256.34877,0.06676
1254.28918,0.06754
1252.22959,0.06829
1250.17001,0.06881
1248.11042,0.06916
1246.05083,0.06945
1243.99124,0.06977
1241.93165,0.07018
1239.87207,0.07062
1237.81248,0.07088
1235.75289,0.07089
1233.69330,0.07077
1231.63371,0.07065
1229.57412,0.07050
1227.51454,0.07024
1225.45495,0.06988
1223.39536,0.06947
1221.33577,0.06894
1219.27618,0.06833
1217.21660,0.06766
1215.15701,0.06684
1213.09742,0.06599
1211.03783,0.06517
1208.97824,0.06427
1206.91865,0.06330
1204.85907,0.06235
1202.79948,0.06140
1200.73989,0.06042
1198.68030,0.05949
1196.62071,0.05861
1194.56113,0.05780
1192.50154,0.05709
1190.44195,0.05641
1188.38236,0.05581
1186.32277,0.05535
1184.26319,0.05503
1182.20360,0.05485
1180.14401,0.05487
1178.08442,0.05516
1176.02483,0.05565
1173.96524,0.05625
1171.90566,0.05691
1169.84607,0.05755
1167.78648,0.05803
1165.72689,0.05820
1163.66730,0.05816
1161.60772,0.05794
1159.54813,0.05752
1157.48854,0.05703
1155.42895,0.05655
1153.36936,0.05599
1151.30977,0.05538
1149.25019,0.05479
1147.19060,0.05415
1145.13101,0.05337
1143.07142,0.05263
1141.01183,0.05216
1138.95225,0.05186
1136.89266,0.05154
1134.83307,0.05121
1132.77348,0.05098
1130.71389,0.05085
1128.65431,0.05070
1126.59472,0.05046
1124.53513,0.05014
1122.47554,0.04975
1120.41595,0.04935
1118.35636,0.04898
1116.29678,0.04861
1114.23719,0.04827
1112.17760,0.04805
1110.11801,0.04793
1108.05842,0.04788
1105.99884,0.04796
1103.93925,0.04806
1101.87966,0.04808
1099.82007,0.04810
1097.76048,0.04814
1095.70089,0.04819
1093.64131,0.04833
1091.58172,0.04870
1089.52213,0.04940
1087.46254,0.05035
1085.40295,0.05132
1083.34337,0.05236
1081.28378,0.05357
1079.22419,0.05481
1077.16460,0.05588
1075.10501,0.05679
1073.04543,0.05765
1070.98584,0.05849
1068.92625,0.05912
1066.86666,0.05951
1064.80707,0.05988
1062.74748,0.06022
1060.68790,0.06037
1058.62831,0.06035
1056.56872,0.06020
1054.50913,0.05996
1052.44954,0.05966
1050.38996,0.05934
1048.33037,0.05896
1046.27078,0.05843
1044.21119,0.05775
1042.15160,0.05692
1040.09201,0.05596
1038.03243,0.05506
1035.97284,0.05428
1033.91325,0.05351
1031.85366,0.05266
1029.79407,0.05177
1027.73449,0.05084
1025.67490,0.04978
1023.61531,0.04873
1021.55572,0.04780
1019.49613,0.04696
1017.43655,0.04623
1015.37696,0.04555
1013.31737,0.04488
1011.25778,0.04420
1009.19819,0.04356
1007.13860,0.04296
1005.07902,0.04234
1003.01943,0.04171
1000.95984,0.04116
998.90025,0.04062
996.84066,0.04001
994.78108,0.03947
992.72149,0.03908
990.66190,0.03872
988.60231,0.03835
986.54272,0.03802
984.48313,0.03779
982.42355,0.03760
980.36396,0.03739
978.30437,0.03721
976.24478,0.03705
974.18519,0.03688
972.12561,0.03682
970.06602,0.03692
968.00643,0.03702
965.94684,0.03709
963.88725,0.03720
961.82767,0.03719
959.76808,0.03696
957.70849,0.03663
955.64890,0.03636
953.58931,0.03623
951.52972,0.03625
949.47014,0.03620
947.41055,0.03595
945.35096,0.03566
943.29137,0.03554
941.23178,0.03556
939.17220,0.03551
937.11261,0.03535
935.05302,0.03525
932.99343,0.03523
930.93384,0.03519
928.87425,0.03511
926.81467,0.03491
924.75508,0.03463
922.69549,0.03441
920.63590,0.03424
918.57631,0.03399
916.51673,0.03369
914.45714,0.03344
912.39755,0.03323
910.33796,0.03307
908.27837,0.03300
906.21879,0.03305
904.15920,0.03309
902.09961,0.03298
900.04002,0.03286
897.98043,0.03280
895.92084,0.03270
893.86126,0.03258
891.80167,0.03229
889.74208,0.03178
887.68249,0.03134
885.62290,0.03106
883.56332,0.03084
881.50373,0.03067
879.44414,0.03052
877.38455,0.03044
875.32496,0.03037
873.26537,0.03011
871.20579,0.02979
869.14620,0.02955
867.08661,0.02934
865.02702,0.02913
862.96743,0.02889
860.90785,0.02857
858.84826,0.02825
856.78867,0.02814
854.72908,0.02821
852.66949,0.02817
850.60991,0.02803
848.55032,0.02788
846.49073,0.02767
844.43114,0.02740
842.37155,0.02729
840.31196,0.02739
838.25238,0.02746
836.19279,0.02750
834.13320,0.02764
832.07361,0.02777
830.01402,0.02784
827.95444,0.02788
825.89485,0.02784
823.83526,0.02769
821.77567,0.02755
819.71608,0.02756
817.65649,0.02766
815.59691,0.02771
813.53732,0.02771
811.47773,0.02781
809.41814,0.02799
807.35855,0.02816
805.29897,0.02821
803.23938,0.02807
801.17979,0.02789
799.12020,0.02780
797.06061,0.02767
795.00103,0.02752
792.94144,0.02758
790.88185,0.02780
788.82226,0.02796
786.76267,0.02811
784.70308,0.02838
782.64350,0.02868
780.58391,0.02889
778.52432,0.02906
776.46473,0.02926
774.40514,0.02941
772.34556,0.02951
770.28597,0.02965
768.22638,0.02979
766.16679,0.02994
764.10720,0.03005
762.04761,0.03006
759.98803,0.02998
757.92844,0.02997
755.86885,0.03010
753.80926,0.03030
751.74967,0.03054
749.69009,0.03069
747.63050,0.03063
745.57091,0.03046
743.51132,0.03043
741.45173,0.03059
739.39215,0.03076
737.33256,0.03075
735.27297,0.03061
733.21338,0.03060
731.15379,0.03086
729.09420,0.03124
727.03462,0.03156
724.97503,0.03186
722.91544,0.03230
720.85585,0.03290
718.79626,0.03354
716.73668,0.03411
714.67709,0.03459
712.61750,0.03515
710.55791,0.03601
708.49832,0.03707
706.43873,0.03794
704.37915,0.03857
702.31956,0.03922
700.25997,0.03984
698.20038,0.04019
696.14079,0.04025
694.08121,0.04019
692.02162,0.04018
689.96203,0.04014
687.90244,0.04006
685.84285,0.04007
683.78327,0.04019
681.72368,0.04035
679.66409,0.04047
677.60450,0.04051
675.54491,0.04056
673.48532,0.04058
671.42574,0.04060
669.36615,0.04084
667.30656,0.04137
665.24697,0.04159
663.18738,0.04150
661.12780,0.04145
659.06821,0.04155
657.00862,0.04178
654.94903,0.04205
652.88944,0.04220
650.82985,0.04226
648.77027,0.04231
646.71068,0.04236
644.65109,0.04246
642.59150,0.04259
640.53191,0.04275
638.47233,0.04295
636.41274,0.04312
634.35315,0.04331
632.29356,0.04359
630.23397,0.04382
628.17439,0.04384
626.11480,0.04380
624.05521,0.04403
621.99562,0.04438
619.93603,0.04453
617.87644,0.04446
615.81686,0.04415
613.75727,0.04375
611.69768,0.04343
609.63809,0.04317
607.57850,0.04294
605.51892,0.04278
603.45933,0.04280
601.39974,0.04293
599.34015,0.04301
597.28056,0.04297
595.22097,0.04297
593.16139,0.04303
591.10180,0.04295
589.04221,0.04290
586.98262,0.04301
584.92303,0.04313
582.86345,0.04319
580.80386,0.04312
578.74427,0.04282
576.68468,0.04250
574.62509,0.04246
572.56551,0.04261
570.50592,0.04267
568.44633,0.04268
566.38674,0.04267
564.32715,0.04269
562.26756,0.04279
560.20798,0.04284
558.14839,0.04278
556.08880,0.04270
554.02921,0.04278
551.96962,0.04281
549.91004,0.04254
547.85045,0.04232
545.79086,0.04240
543.73127,0.04250
541.67168,0.04251
539.61209,0.04249
537.55251,0.04243
535.49292,0.04231
533.43333,0.04216
531.37374,0.04211
529.31415,0.04210
527.25457,0.04195
525.19498,0.04193
523.13539,0.04228
521.07580,0.04243
519.01621,0.04211
516.95663,0.04173
514.89704,0.04147
512.83745,0.04135
510.77786,0.04126
508.71827,0.04092
506.65868,0.04033
504.59910,0.03994
502.53951,0.03992
500.47992,0.03981
498.42033,0.03944
496.36074,0.03913
494.30116,0.03895
492.24157,0.03875
490.18198,0.03846
488.12239,0.03821
486.06280,0.03810
484.00321,0.03797
481.94363,0.03778
479.88404,0.03766
477.82445,0.03759
475.76486,0.03740
473.70527,0.03697
471.64569,0.03658
469.58610,0.03663
467.52651,0.03684
465.46692,0.03684
463.40733,0.03676
461.34775,0.03670
459.28816,0.03647
457.22857,0.03613
455.16898,0.03596
453.10939,0.03579
451.04980,0.03572
448.99022,0.03590
446.93063,0.03590
444.87104,0.03551
442.81145,0.03511
440.75186,0.03465
438.69228,0.03368
436.63269,0.03273
434.57310,0.03239
432.51351,0.03207
430.45392,0.03144
428.39433,0.03097
426.33475,0.03095
424.27516,0.03122
422.21557,0.03127
420.15598,0.03080
418.09639,0.03041
416.03681,0.03043
413.97722,0.03029
411.91763,0.03005
409.85804,0.02984
407.79845,0.02947
405.73887,0.02914
403.67928,0.02890
401.61969,0.02843
399.56010,0.02783
