3997.66060,0.03222
3995.60101,0.03234
3993.54142,0.03256
3991.48183,0.03244
3989.42224,0.03238
3987.36265,0.03319
3985.30307,0.03399
3983.24348,0.03383
3981.18389,0.03293
3979.12430,0.03214
3977.06471,0.03184
3975.00513,0.03167
3972.94554,0.03182
3970.88595,0.03206
3968.82636,0.03198
3966.76677,0.03181
3964.70719,0.03182
3962.64760,0.03231
3960.58801,0.03285
3958.52842,0.03241
3956.46883,0.03151
3954.40924,0.03138
3952.34966,0.03131
3950.29007,0.03039
3948.23048,0.02971
3946.17089,0.03035
3944.11130,0.03121
3942.05172,0.03149
3939.99213,0.03187
3937.93254,0.03206
3935.87295,0.03133
3933.81336,0.03007
3931.75377,0.02941
3929.69419,0.02996
3927.63460,0.03073
3925.57501,0.03060
3923.51542,0.03037
3921.45583,0.03087
3919.39625,0.03096
3917.33666,0.03046
3915.27707,0.03050
3913.21748,0.03069
3911.15789,0.03040
3909.09831,0.02992
3907.03872,0.02916
3904.97913,0.02792
3902.91954,0.02746
3900.85995,0.02848
3898.80036,0.02989
3896.74078,0.03052
3894.68119,0.02978
3892.62160,0.02888
3890.56201,0.02906
3888.50242,0.02886
3886.44284,0.02759
3884.38325,0.02700
3882.32366,0.02732
3880.26407,0.02777
3878.20448,0.02855
3876.14489,0.02892
3874.08531,0.02878
3872.02572,0.02853
3869.96613,0.02810
3867.90654,0.02773
3865.84695,0.02712
3863.78737,0.02683
3861.72778,0.02740
3859.66819,0.02781
3857.60860,0.02754
3855.54901,0.02622
3853.48943,0.02444
3851.42984,0.02515
3849.37025,0.02722
3847.31066,0.02842
3845.25107,0.02846
3843.19148,0.02795
3841.13190,0.02717
3839.07231,0.02621
3837.01272,0.02595
3834.95313,0.02632
3832.89354,0.02664
3830.83396,0.02737
3828.77437,0.02809
3826.71478,0.02785
3824.65519,0.02706
3822.59560,0.02625
3820.53601,0.02590
3818.47643,0.02644
3816.41684,0.02698
3814.35725,0.02734
3812.29766,0.02759
3810.23807,0.02732
3808.17849,0.02677
3806.11890,0.02693
3804.05931,0.02722
3801.99972,0.02637
3799.94013,0.02555
3797.88055,0.02585
3795.82096,0.02694
3793.76137,0.02813
3791.70178,0.02823
3789.64219,0.02777
3787.58260,0.02780
3785.52302,0.02800
3783.46343,0.02814
3781.40384,0.02814
3779.34425,0.02787
3777.28466,0.02781
3775.22508,0.02784
3773.16549,0.02740
3771.10590,0.02625
3769.04631,0.02530
3766.98672,0.02568
3764.92713,0.02653
3762.86755,0.02674
3760.80796,0.02635
3758.74837,0.02604
3756.68878,0.02627
3754.62919,0.02640
3752.56961,0.02520
3750.51002,0.02356
3748.45043,0.02375
3746.39084,0.02396
3744.33125,0.02383
3742.27167,0.02532
3740.21208,0.02659
3738.15249,0.02599
3736.09290,0.02415
3734.03331,0.02348
3731.97372,0.02457
3729.91414,0.02539
3727.85455,0.02513
3725.79496,0.02430
3723.73537,0.02420
3721.67578,0.02528
3719.61620,0.02643
3717.55661,0.02667
3715.49702,0.02582
3713.43743,0.02442
3711.37784,0.02381
3709.31825,0.02458
3707.25867,0.02508
3705.19908,0.02476
3703.13949,0.02400
3701.07990,0.02400
3699.02031,0.02565
3696.96073,0.02688
3694.90114,0.02627
3692.84155,0.02468
3690.78196,0.02301
3688.72237,0.02263
3686.66279,0.02426
3684.60320,0.02602
3682.54361,0.02669
3680.48402,0.02622
3678.42443,0.02486
3676.36484,0.02331
3674.30526,0.02340
3672.24567,0.02467
3670.18608,0.02555
3668.12649,0.02658
3666.06690,0.02777
3664.00732,0.02865
3661.94773,0.02891
3659.88814,0.02848
3657.82855,0.02808
3655.76896,0.02834
3653.70937,0.02848
3651.64979,0.02751
3649.59020,0.02653
3647.53061,0.02714
3645.47102,0.02860
3643.41143,0.03000
3641.35185,0.03094
3639.29226,0.03107
3637.23267,0.03090
3635.17308,0.03104
3633.11349,0.03092
3631.05391,0.02980
3628.99432,0.02883
3626.93473,0.03072
3624.87514,0.03340
3622.81555,0.03458
3620.75596,0.03452
3618.69638,0.03408
3616.63679,0.03401
3614.57720,0.03415
3612.51761,0.03477
3610.45802,0.03615
3608.39844,0.03740
3606.33885,0.03823
3604.27926,0.03893
3602.21967,0.03936
3600.16008,0.03966
3598.10049,0.04011
3596.04091,0.04059
3593.98132,0.04132
3591.92173,0.04183
3589.86214,0.04094
3587.80255,0.03991
3585.74297,0.04119
3583.68338,0.04346
3581.62379,0.04493
3579.56420,0.04545
3577.50461,0.04562
3575.44503,0.04607
3573.38544,0.04673
3571.32585,0.04757
3569.26626,0.04789
3567.20667,0.04738
3565.14708,0.04797
3563.08750,0.04972
3561.02791,0.05084
3558.96832,0.05095
3556.90873,0.05102
3554.84914,0.05160
3552.78956,0.05275
3550.72997,0.05407
3548.67038,0.05467
3546.61079,0.05500
3544.55120,0.05621
3542.49161,0.05778
3540.43203,0.05870
3538.37244,0.05924
3536.31285,0.05973
3534.25326,0.06005
3532.19367,0.06040
3530.13409,0.06093
3528.07450,0.06147
3526.01491,0.06192
3523.95532,0.06238
3521.89573,0.06332
3519.83615,0.06449
3517.77656,0.06531
3515.71697,0.06592
3513.65738,0.06659
3511.59779,0.06744
3509.53820,0.06873
3507.47862,0.07034
3505.41903,0.07120
3503.35944,0.07099
3501.29985,0.07110
3499.24026,0.07215
3497.18068,0.07332
3495.12109,0.07413
3493.06150,0.07471
3491.00191,0.07537
3488.94232,0.07632
3486.88273,0.07695
3484.82315,0.07702
3482.76356,0.07760
3480.70397,0.07882
3478.64438,0.07979
3476.58479,0.08046
3474.52521,0.08118
3472.46562,0.08192
3470.40603,0.08239
3468.34644,0.08280
3466.28685,0.08337
3464.22727,0.08408
3462.16768,0.08496
3460.10809,0.08560
3458.04850,0.08601
3455.98891,0.08676
3453.92932,0.08768
3451.86974,0.08846
3449.81015,0.08897
3447.75056,0.08908
3445.69097,0.08951
3443.63138,0.09053
3441.57180,0.09154
3439.51221,0.09245
3437.45262,0.09337
3435.39303,0.09418
3433.33344,0.09497
3431.27385,0.09579
3429.21427,0.09665
3427.15468,0.09770
3425.09509,0.09881
3423.03550,0.09971
3420.97591,0.10028
3418.91633,0.10098
3416.85674,0.10206
3414.79715,0.10310
3412.73756,0.10416
3410.67797,0.10531
3408.61839,0.10610
3406.55880,0.10661
3404.49921,0.10730
3402.43962,0.10822
3400.38003,0.10938
3398.32044,0.11055
3396.26086,0.11144
3394.20127,0.11225
3392.14168,0.11314
3390.08209,0.11414
3388.02250,0.11542
3385.96292,0.11661
3383.90333,0.11736
3381.84374,0.11847
3379.78415,0.12021
3377.72456,0.12163
3375.66497,0.12255
3373.60539,0.12370
3371.54580,0.12498
3369.48621,0.12612
3367.42662,0.12738
3365.36703,0.12876
3363.30745,0.13035
3361.24786,0.13244
3359.18827,0.13476
3357.12868,0.13659
3355.06909,0.13782
3353.00951,0.13905
3350.94992,0.14085
3348.89033,0.14308
3346.83074,0.14509
3344.77115,0.14669
3342.71156,0.14830
3340.65198,0.15017
3338.59239,0.15206
3336.53280,0.15391
3334.47321,0.15592
3332.41362,0.15787
3330.35404,0.15981
3328.29445,0.16209
3326.23486,0.16464
3324.17527,0.16710
3322.11568,0.16918
3320.05609,0.17116
3317.99651,0.17369
3315.93692,0.17643
3313.87733,0.17841
3311.81774,0.18008
3309.75815,0.18256
3307.69857,0.18547
3305.63898,0.18777
3303.57939,0.18954
3301.51980,0.19121
3299.46021,0.19273
3297.40063,0.19382
3295.34104,0.19476
3293.28145,0.19612
3291.22186,0.19767
3289.16227,0.19871
3287.10268,0.19900
3285.04310,0.19875
3282.98351,0.19820
3280.92392,0.19750
3278.86433,0.19643
3276.80474,0.19502
3274.74516,0.19375
3272.68557,0.19229
3270.62598,0.19026
3268.56639,0.18795
3266.50680,0.18527
3264.44721,0.18213
3262.38763,0.17890
3260.32804,0.17590
3258.26845,0.17309
3256.20886,0.17031
3254.14927,0.16740
3252.08969,0.16419
3250.03010,0.16100
3247.97051,0.15839
3245.91092,0.15631
3243.85133,0.15431
3241.79175,0.15197
3239.73216,0.14950
3237.67257,0.14719
3235.61298,0.14514
3233.55339,0.14349
3231.49380,0.14188
3229.43422,0.13981
3227.37463,0.13756
3225.31504,0.13569
3223.25545,0.13423
3221.19586,0.13298
3219.13628,0.13153
3217.07669,0.13000
3215.01710,0.12891
3212.95751,0.12808
3210.89792,0.12690
3208.83833,0.12523
3206.77875,0.12361
3204.71916,0.12246
3202.65957,0.12112
3200.59998,0.11945
3198.54039,0.11806
3196.48081,0.11673
3194.42122,0.11537
3192.36163,0.11436
3190.30204,0.11346
3188.24245,0.11223
3186.18287,0.11070
3184.12328,0.10899
3182.06369,0.10734
3180.00410,0.10614
3177.94451,0.10520
3175.88492,0.10368
3173.82534,0.10167
3171.76575,0.10022
3169.70616,0.09930
3167.64657,0.09822
3165.58698,0.09689
3163.52740,0.09538
3161.46781,0.09384
3159.40822,0.09257
3157.34863,0.09139
3155.28904,0.09004
3153.22945,0.08872
3151.16987,0.08773
3149.11028,0.08719
3147.05069,0.08655
3144.99110,0.08541
3142.93151,0.08401
3140.87193,0.08250
3138.81234,0.08132
3136.75275,0.08092
3134.69316,0.08089
3132.63357,0.08032
3130.57399,0.07940
3128.51440,0.07882
3126.45481,0.07850
3124.39522,0.07834
3122.33563,0.07823
3120.27604,0.07792
3118.21646,0.07759
3116.15687,0.07744
3114.09728,0.07738
3112.03769,0.07711
3109.97810,0.07644
3107.91852,0.07565
3105.85893,0.07531
3103.79934,0.07562
3101.73975,0.07630
3099.68016,0.07698
3097.62057,0.07713
3095.56099,0.07683
3093.50140,0.07713
3091.44181,0.07806
3089.38222,0.07865
3087.32263,0.07886
3085.26305,0.07913
3083.20346,0.07932
3081.14387,0.07934
3079.08428,0.07942
3077.02469,0.07953
3074.96511,0.07945
3072.90552,0.07930
3070.84593,0.07909
3068.78634,0.07892
3066.72675,0.07883
3064.66716,0.07860
3062.60758,0.07841
3060.54799,0.07823
3058.48840,0.07769
3056.42881,0.07696
3054.36922,0.07634
3052.30964,0.07568
3050.25005,0.07486
3048.19046,0.07404
3046.13087,0.07338
3044.07128,0.07275
3042.01169,0.07185
3039.95211,0.07098
3037.89252,0.07049
3035.83293,0.06985
3033.77334,0.06880
3031.71375,0.06787
3029.65417,0.06725
3027.59458,0.06673
3025.53499,0.06604
3023.47540,0.06516
3021.41581,0.06432
3019.35623,0.06358
3017.29664,0.06312
3015.23705,0.06302
3013.17746,0.06276
3011.11787,0.06209
3009.05828,0.06134
3006.99870,0.06079
3004.93911,0.06087
3002.87952,0.06139
3000.81993,0.06174
2998.76034,0.06222
2996.70076,0.06300
2994.64117,0.06382
2992.58158,0.06462
2990.52199,0.06564
2988.46240,0.06723
2986.40281,0.06898
2984.34323,0.07049
2982.28364,0.07201
2980.22405,0.07360
2978.16446,0.07518
2976.10487,0.07664
2974.04529,0.07768
2971.98570,0.07860
2969.92611,0.07953
2967.86652,0.08004
2965.80693,0.08033
2963.74735,0.08060
2961.68776,0.08045
2959.62817,0.07964
2957.56858,0.07833
2955.50899,0.07727
2953.44940,0.07686
2951.38982,0.07656
2949.33023,0.07631
2947.27064,0.07649
2945.21105,0.07714
2943.15146,0.07809
2941.09188,0.07899
2939.03229,0.08005
2936.97270,0.08119
2934.91311,0.08166
2932.85352,0.08155
2930.79393,0.08112
2928.73435,0.07992
2926.67476,0.07757
2924.61517,0.07408
2922.55558,0.06921
2920.49599,0.06305
2918.43641,0.05670
2916.37682,0.05240
2914.31723,0.05253
2912.25764,0.05620
2910.19805,0.05949
2908.13847,0.06065
2906.07888,0.06092
2904.01929,0.06119
2901.95970,0.06126
2899.90011,0.06113
2897.84052,0.06099
2895.78094,0.06061
2893.72135,0.06009
2891.66176,0.05993
2889.60217,0.06006
2887.54258,0.06028
2885.48300,0.06066
2883.42341,0.06125
2881.36382,0.06196
2879.30423,0.06269
2877.24464,0.06324
2875.18505,0.06333
2873.12547,0.06269
2871.06588,0.06147
2869.00629,0.06010
2866.94670,0.05868
2864.88711,0.05731
2862.82753,0.05617
2860.76794,0.05505
2858.70835,0.05384
2856.64876,0.05263
2854.58917,0.05067
2852.52959,0.04675
2850.47000,0.04160
2848.41041,0.03870
2846.35082,0.04012
2844.29123,0.04352
2842.23164,0.04588
2840.17206,0.04667
2838.11247,0.04655
2836.05288,0.04610
2833.99329,0.04576
2831.93370,0.04560
2829.87412,0.04535
2827.81453,0.04512
2825.75494,0.04517
2823.69535,0.04520
2821.63576,0.04501
2819.57617,0.04463
2817.51659,0.04408
2815.45700,0.04361
2813.39741,0.04334
2811.33782,0.04298
2809.27823,0.04255
2807.21865,0.04232
2805.15906,0.04210
2803.09947,0.04194
2801.03988,0.04208
2798.98029,0.04220
2796.92071,0.04201
2794.86112,0.04161
2792.80153,0.04120
2790.74194,0.04080
2788.68235,0.04040
2786.62276,0.04009
2784.56318,0.03983
2782.50359,0.03944
2780.44400,0.03891
2778.38441,0.03855
2776.32482,0.03851
2774.26524,0.03849
2772.20565,0.03836
2770.14606,0.03826
2768.08647,0.03815
2766.02688,0.03782
2763.96729,0.03749
2761.90771,0.03737
2759.84812,0.03725
2757.78853,0.03703
2755.72894,0.03679
2753.66935,0.03653
2751.60977,0.03625
2749.55018,0.03599
2747.49059,0.03588
2745.43100,0.03581
2743.37141,0.03564
2741.31183,0.03539
2739.25224,0.03519
2737.19265,0.03515
2735.13306,0.03509
2733.07347,0.03481
2731.01388,0.03452
2728.95430,0.03442
2726.89471,0.03441
2724.83512,0.03422
2722.77553,0.03388
2720.71594,0.03353
2718.65636,0.03319
2716.59677,0.03303
2714.53718,0.03296
2712.47759,0.03268
2710.41800,0.03236
2708.35841,0.03221
2706.29883,0.03218
2704.23924,0.03225
2702.17965,0.03217
2700.12006,0.03179
2698.06047,0.03144
2696.00089,0.03143
2693.94130,0.03157
2691.88171,0.03144
2689.82212,0.03103
2687.76253,0.03067
2685.70295,0.03064
2683.64336,0.03083
2681.58377,0.03098
2679.52418,0.03090
2677.46459,0.03058
2675.40500,0.03027
2673.34542,0.03023
2671.28583,0.03021
2669.22624,0.03002
2667.16665,0.02983
2665.10706,0.02986
2663.04748,0.03007
2660.98789,0.03020
2658.92830,0.03034
2656.86871,0.03063
2654.80912,0.03077
2652.74953,0.03074
2650.68995,0.03067
2648.63036,0.03038
2646.57077,0.02991
2644.51118,0.02951
2642.45159,0.02923
2640.39201,0.02902
2638.33242,0.02900
2636.27283,0.02924
2634.21324,0.02942
2632.15365,0.02928
2630.09407,0.02902
2628.03448,0.02888
2625.97489,0.02872
2623.91530,0.02838
2621.85571,0.02788
2619.79612,0.02748
2617.73654,0.02746
2615.67695,0.02763
2613.61736,0.02767
2611.55777,0.02761
2609.49818,0.02721
2607.43860,0.02663
2605.37901,0.02660
2603.31942,0.02691
2601.25983,0.02708
2599.20024,0.02714
2597.14065,0.02710
2595.08107,0.02699
2593.02148,0.02667
2590.96189,0.02620
2588.90230,0.02591
2586.84271,0.02596
2584.78313,0.02584
2582.72354,0.02511
2580.66395,0.02450
2578.60436,0.02461
2576.54477,0.02515
2574.48519,0.02553
2572.42560,0.02540
2570.36601,0.02525
2568.30642,0.02536
2566.24683,0.02513
2564.18724,0.02439
2562.12766,0.02385
2560.06807,0.02378
2558.00848,0.02369
2555.94889,0.02358
2553.88930,0.02356
2551.82972,0.02352
2549.77013,0.02345
2547.71054,0.02356
2545.65095,0.02372
2543.59136,0.02375
2541.53177,0.02396
2539.47219,0.02425
2537.41260,0.02391
2535.35301,0.02310
2533.29342,0.02264
2531.23383,0.02268
2529.17425,0.02265
2527.11466,0.02232
2525.05507,0.02199
2522.99548,0.02204
2520.93589,0.02227
2518.87631,0.02209
2516.81672,0.02179
2514.75713,0.02187
2512.69754,0.02195
2510.63795,0.02192
2508.57836,0.02186
2506.51878,0.02166
2504.45919,0.02160
2502.39960,0.02164
2500.34001,0.02160
2498.28042,0.02156
2496.22084,0.02161
2494.16125,0.02173
2492.10166,0.02152
2490.04207,0.02103
2487.98248,0.02091
2485.92289,0.02121
2483.86331,0.02164
2481.80372,0.02176
2479.74413,0.02133
2477.68454,0.02105
2475.62495,0.02126
2473.56537,0.02133
2471.50578,0.02116
2469.44619,0.02118
2467.38660,0.02109
2465.32701,0.02067
2463.26743,0.02043
2461.20784,0.02048
2459.14825,0.02052
2457.08866,0.02066
2455.02907,0.02077
2452.96948,0.02055
2450.90990,0.02022
2448.85031,0.02017
2446.79072,0.02024
2444.73113,0.02008
2442.67154,0.01995
2440.61196,0.02002
2438.55237,0.02020
2436.49278,0.02041
2434.43319,0.02018
2432.37360,0.01966
2430.31401,0.01927
2428.25443,0.01887
2426.19484,0.01865
2424.13525,0.01905
2422.07566,0.01931
2420.01607,0.01881
2417.95649,0.01844
2415.89690,0.01875
2413.83731,0.01904
2411.77772,0.01889
2409.71813,0.01880
2407.65855,0.01891
2405.59896,0.01890
2403.53937,0.01876
2401.47978,0.01847
2399.42019,0.01819
2397.36060,0.01817
2395.30102,0.01838
2393.24143,0.01850
2391.18184,0.01822
2389.12225,0.01784
2387.06266,0.01770
2385.00308,0.01764
2382.94349,0.01776
2380.88390,0.01806
2378.82431,0.01816
2376.76472,0.01801
2374.70513,0.01801
2372.64555,0.01847
2370.58596,0.01899
2368.52637,0.01922
2366.46678,0.01941
2364.40719,0.01959
2362.34761,0.01980
2360.28802,0.02021
2358.22843,0.02022
2356.16884,0.01988
2354.10925,0.01977
2352.04967,0.01928
2349.99008,0.01857
2347.93049,0.01858
2345.87090,0.01909
2343.81131,0.01923
2341.75172,0.01902
2339.69214,0.01882
2337.63255,0.01885
2335.57296,0.01904
2333.51337,0.01922
2331.45378,0.01945
2329.39420,0.01959
2327.33461,0.01987
2325.27502,0.02035
2323.21543,0.02027
2321.15584,0.01967
2319.09625,0.01935
2317.03667,0.01925
2314.97708,0.01906
2312.91749,0.01882
2310.85790,0.01847
2308.79831,0.01808
2306.73873,0.01787
2304.67914,0.01775
2302.61955,0.01725
2300.55996,0.01678
2298.50037,0.01682
2296.44079,0.01680
2294.38120,0.01689
2292.32161,0.01740
2290.26202,0.01746
2288.20243,0.01704
2286.14284,0.01696
2284.08326,0.01705
2282.02367,0.01687
2279.96408,0.01670
2277.90449,0.01672
2275.84490,0.01647
2273.78532,0.01586
2271.72573,0.01534
2269.66614,0.01482
2267.60655,0.01449
2265.54696,0.01494
2263.48737,0.01570
2261.42779,0.01600
2259.36820,0.01578
2257.30861,0.01543
2255.24902,0.01533
2253.18943,0.01560
2251.12985,0.01589
2249.07026,0.01555
2247.01067,0.01472
2244.95108,0.01395
2242.89149,0.01384
2240.83191,0.01414
2238.77232,0.01419
2236.71273,0.01437
2234.65314,0.01451
2232.59355,0.01431
2230.53396,0.01425
2228.47438,0.01430
2226.41479,0.01423
2224.35520,0.01431
2222.29561,0.01441
2220.23602,0.01384
2218.17644,0.01272
2216.11685,0.01215
2214.05726,0.01276
2211.99767,0.01385
2209.93808,0.01435
2207.87849,0.01428
2205.81891,0.01386
2203.75932,0.01313
2201.69973,0.01289
2199.64014,0.01323
2197.58055,0.01342
2195.52097,0.01316
2193.46138,0.01311
2191.40179,0.01356
2189.34220,0.01370
2187.28261,0.01294
2185.22303,0.01126
2183.16344,0.01000
2181.10385,0.01064
2179.04426,0.01255
2176.98467,0.01385
2174.92508,0.01337
2172.86550,0.01202
2170.80591,0.01122
2168.74632,0.01111
2166.68673,0.01140
2164.62714,0.01230
2162.56756,0.01306
2160.50797,0.01171
2158.44838,0.00895
2156.38879,0.00817
2154.32920,0.00966
2152.26961,0.01113
2150.21003,0.01135
2148.15044,0.01078
2146.09085,0.01044
2144.03126,0.01068
2141.97167,0.01094
2139.91209,0.01015
2137.85250,0.00851
2135.79291,0.00814
2133.73332,0.00931
2131.67373,0.01009
2129.61415,0.01015
2127.55456,0.01047
2125.49497,0.01089
2123.43538,0.01101
2121.37579,0.01129
2119.31620,0.01170
2117.25662,0.01219
2115.19703,0.01272
2113.13744,0.01273
2111.07785,0.01236
2109.01826,0.01227
2106.95868,0.01278
2104.89909,0.01350
2102.83950,0.01357
2100.77991,0.01296
2098.72032,0.01236
2096.66073,0.01228
2094.60115,0.01216
2092.54156,0.01147
2090.48197,0.01122
2088.42238,0.01211
2086.36279,0.01295
2084.30321,0.01272
2082.24362,0.01202
2080.18403,0.01186
2078.12444,0.01230
2076.06485,0.01259
2074.00527,0.01231
2071.94568,0.01212
2069.88609,0.01221
2067.82650,0.01210
2065.76691,0.01227
2063.70732,0.01268
2061.64774,0.01240
2059.58815,0.01142
2057.52856,0.01069
2055.46897,0.01054
2053.40938,0.01095
2051.34980,0.01160
2049.29021,0.01129
2047.23062,0.01017
2045.17103,0.00984
2043.11144,0.01049
2041.05185,0.01110
2038.99227,0.01128
2036.93268,0.01088
2034.87309,0.00994
2032.81350,0.00918
2030.75391,0.00904
2028.69433,0.00929
2026.63474,0.00985
2024.57515,0.01027
2022.51556,0.01015
2020.45597,0.00998
2018.39639,0.01024
2016.33680,0.01107
2014.27721,0.01205
2012.21762,0.01245
2010.15803,0.01220
2008.09844,0.01137
2006.03886,0.01054
2003.97927,0.01022
2001.91968,0.01003
1999.86009,0.00988
1997.80050,0.00962
1995.74092,0.00925
1993.68133,0.00946
1991.62174,0.00987
1989.56215,0.00983
1987.50256,0.00978
1985.44297,0.01001
1983.38339,0.01066
1981.32380,0.01140
1979.26421,0.01133
1977.20462,0.01001
1975.14503,0.00849
1973.08545,0.00788
1971.02586,0.00786
1968.96627,0.00812
1966.90668,0.00835
1964.84709,0.00821
1962.78751,0.00806
1960.72792,0.00795
1958.66833,0.00802
1956.60874,0.00872
1954.54915,0.00940
1952.48956,0.00926
1950.42998,0.00895
1948.37039,0.00912
1946.31080,0.00933
1944.25121,0.00909
1942.19162,0.00887
1940.13204,0.00914
1938.07245,0.00941
1936.01286,0.00911
1933.95327,0.00880
1931.89368,0.00898
1929.83409,0.00906
1927.77451,0.00885
1925.71492,0.00862
1923.65533,0.00858
1921.59574,0.00913
1919.53615,0.00962
1917.47657,0.00939
1915.41698,0.00911
1913.35739,0.00923
1911.29780,0.00958
1909.23821,0.00997
1907.17863,0.00989
1905.11904,0.00930
1903.05945,0.00918
1900.99986,0.00973
1898.94027,0.01011
1896.88068,0.01011
1894.82110,0.00991
1892.76151,0.00971
1890.70192,0.00965
1888.64233,0.00956
1886.58274,0.00947
1884.52316,0.00941
1882.46357,0.00950
1880.40398,0.00996
1878.34439,0.01024
1876.28480,0.00993
1874.22521,0.00966
1872.16563,0.00967
1870.10604,0.00951
1868.04645,0.00929
1865.98686,0.00949
1863.92727,0.00985
1861.86769,0.00984
1859.80810,0.00957
1857.74851,0.00953
1855.68892,0.00969
1853.62933,0.00989
1851.56975,0.00996
1849.51016,0.00974
1847.45057,0.00933
1845.39098,0.00899
1843.33139,0.00900
1841.27180,0.00944
1839.21222,0.00975
1837.15263,0.00965
1835.09304,0.00936
1833.03345,0.00912
1830.97386,0.00893
1828.91428,0.00889
1826.85469,0.00913
1824.79510,0.00945
1822.73551,0.00989
1820.67592,0.01026
1818.61633,0.01008
1816.55675,0.00963
1814.49716,0.00965
1812.43757,0.00995
1810.37798,0.01008
1808.31839,0.01009
1806.25881,0.01015
1804.19922,0.01026
1802.13963,0.01019
1800.08004,0.00994
1798.02045,0.00979
1795.96087,0.00986
1793.90128,0.00983
1791.84169,0.00990
1789.78210,0.01042
1787.72251,0.01083
1785.66292,0.01093
1783.60334,0.01101
1781.54375,0.01108
1779.48416,0.01118
1777.42457,0.01138
1775.36498,0.01135
1773.30540,0.01108
1771.24581,0.01131
1769.18622,0.01217
1767.12663,0.01288
1765.06704,0.01312
1763.00745,0.01310
1760.94787,0.01335
1758.88828,0.01383
1756.82869,0.01426
1754.76910,0.01472
1752.70951,0.01508
1750.64993,0.01554
1748.59034,0.01623
1746.53075,0.01695
1744.47116,0.01780
1742.41157,0.01889
1740.35199,0.01988
1738.29240,0.02066
1736.23281,0.02101
1734.17322,0.02122
1732.11363,0.02220
1730.05404,0.02342
1727.99446,0.02448
1725.93487,0.02533
1723.87528,0.02613
1721.81569,0.02684
1719.75610,0.02715
1717.69652,0.02755
1715.63693,0.02925
1713.57734,0.03169
1711.51775,0.03401
1709.45816,0.03631
1707.39857,0.03917
1705.33899,0.04344
1703.27940,0.04852
1701.21981,0.05534
1699.16022,0.06449
1697.10063,0.07220
1695.04105,0.07942
1692.98146,0.08586
1690.92187,0.09127
1688.86228,0.09706
1686.80269,0.10252
1684.74311,0.10954
1682.68352,0.11924
1680.62393,0.12749
1678.56434,0.13451
1676.50475,0.14219
1674.44516,0.15165
1672.38558,0.16097
1670.32599,0.17110
1668.26640,0.18362
1666.20681,0.19479
1664.14722,0.20535
1662.08764,0.21768
1660.02805,0.22897
1657.96846,0.23686
1655.90887,0.24168
1653.84928,0.24553
1651.78969,0.24905
1649.73011,0.24942
1647.67052,0.24802
1645.61093,0.24656
1643.55134,0.24515
1641.49175,0.24328
1639.43217,0.24075
1637.37258,0.23762
1635.31299,0.23477
1633.25340,0.23278
1631.19381,0.23035
1629.13423,0.22687
1627.07464,0.22255
1625.01505,0.21693
1622.95546,0.20929
1620.89587,0.20051
1618.83628,0.19071
1616.77670,0.17781
1614.71711,0.16430
1612.65752,0.15261
1610.59793,0.14087
1608.53834,0.12920
1606.47876,0.11883
1604.41917,0.11001
1602.35958,0.10250
1600.29999,0.09625
1598.24040,0.09099
1596.18081,0.08639
1594.12123,0.08245
1592.06164,0.07930
1590.00205,0.07669
1587.94246,0.07453
1585.88287,0.07293
1583.82329,0.07196
1581.76370,0.07151
1579.70411,0.07147
1577.64452,0.07213
1575.58493,0.07447
1573.52535,0.07770
1571.46576,0.08099
1569.40617,0.08577
1567.34658,0.09150
1565.28699,0.09713
1563.22740,0.10255
1561.16782,0.10770
1559.10823,0.11683
1557.04864,0.12918
1554.98905,0.13853
1552.92946,0.14719
1550.86988,0.15549
1548.81029,0.16294
1546.75070,0.16869
1544.69111,0.17292
1542.63152,0.17626
1540.57193,0.17965
1538.51235,0.18370
1536.45276,0.18599
1534.39317,0.18694
1532.33358,0.18796
1530.27399,0.18859
1528.21441,0.18827
1526.15482,0.18731
1524.09523,0.18601
1522.03564,0.18470
1519.97605,0.18381
1517.91647,0.18252
1515.85688,0.17973
1513.79729,0.17535
1511.73770,0.16954
1509.67811,0.16282
1507.61852,0.15464
1505.55894,0.14583
1503.49935,0.13946
1501.43976,0.13351
1499.38017,0.12659
1497.32058,0.11891
1495.26100,0.11151
1493.20141,0.10501
1491.14182,0.09829
1489.08223,0.09143
1487.02264,0.08618
1484.96305,0.08225
1482.90347,0.07902
1480.84388,0.07655
1478.78429,0.07502
1476.72470,0.07433
1474.66511,0.07439
1472.60553,0.07570
1470.54594,0.07785
1468.48635,0.07929
1466.42676,0.07987
1464.36717,0.08055
1462.30759,0.08180
1460.24800,0.08298
1458.18841,0.08415
1456.12882,0.08610
1454.06923,0.08764
1452.00964,0.08786
1449.95006,0.08709
1447.89047,0.08573
1445.83088,0.08413
1443.77129,0.08227
1441.71170,0.08006
1439.65212,0.07768
1437.59253,0.07512
1435.53294,0.07286
1433.47335,0.07141
1431.41376,0.07020
1429.35417,0.06920
1427.29459,0.06865
1425.23500,0.06845
1423.17541,0.06856
1421.11582,0.06880
1419.05623,0.06933
1416.99665,0.07038
1414.93706,0.07127
1412.87747,0.07170
1410.81788,0.07185
1408.75829,0.07178
1406.69871,0.07142
1404.63912,0.07093
1402.57953,0.07050
1400.51994,0.07008
1398.46035,0.06976
1396.40076,0.06978
1394.34118,0.07025
1392.28159,0.07103
1390.22200,0.07164
1388.16241,0.07204
1386.10282,0.07246
1384.04324,0.07272
1381.98365,0.07247
1379.92406,0.07177
1377.86447,0.07086
1375.80488,0.06986
1373.74529,0.06898
1371.68571,0.06822
1369.62612,0.06724
1367.56653,0.06588
1365.50694,0.06423
1363.44735,0.06248
1361.38777,0.06113
1359.32818,0.06036
1357.26859,0.05982
1355.20900,0.05943
1353.14941,0.05935
1351.08983,0.05952
1349.03024,0.05971
1346.97065,0.05999
1344.91106,0.06044
1342.85147,0.06084
1340.79188,0.06111
1338.73230,0.06150
1336.67271,0.06200
1334.61312,0.06235
1332.55353,0.06252
1330.49394,0.06263
1328.43436,0.06262
1326.37477,0.06253
1324.31518,0.06255
1322.25559,0.06267
1320.19600,0.06289
1318.13641,0.06332
1316.07683,0.06394
1314.01724,0.06458
1311.95765,0.06512
1309.89806,0.06567
1307.83847,0.06623
1305.77889,0.06660
1303.71930,0.06679
1301.65971,0.06685
1299.60012,0.06676
1297.54053,0.06652
1295.48095,0.06619
1293.42136,0.06584
1291.36177,0.06558
1289.30218,0.06541
1287.24259,0.06534
1285.18300,0.06537
1283.12342,0.06539
1281.06383,0.06549
1279.00424,0.06577
1276.94465,0.06617
1274.88506,0.06659
1272.82548,0.06706
1270.76589,0.06761
1268.70630,0.06820
1266.64671,0.06887
1264.58712,0.06961
1262.52753,0.07023
1260.46795,0.07064
1258.40836,0.07095
1256.34877,0.07124
1254.28918,0.07158
1252.22959,0.07199
1250.17001,0.07244
1248.11042,0.07294
1246.05083,0.07341
1243.99124,0.07373
1241.93165,0.07396
1239.87207,0.07414
1237.81248,0.07417
1235.75289,0.07402
1233.69330,0.07374
1231.63371,0.07331
1229.57412,0.07267
1227.51454,0.07184
1225.45495,0.07087
1223.39536,0.06977
1221.33577,0.06853
1219.27618,0.06715
1217.21660,0.06561
1215.15701,0.06394
1213.09742,0.06232
1211.03783,0.06078
1208.97824,0.05927
1206.91865,0.05782
1204.85907,0.05642
1202.79948,0.05507
1200.73989,0.05385
1198.68030,0.05276
1196.62071,0.05174
1194.56113,0.05079
1192.50154,0.05000
1190.44195,0.04937
1188.38236,0.04891
1186.32277,0.04871
1184.26319,0.04871
1182.20360,0.04892
1180.14401,0.04947
1178.08442,0.05037
1176.02483,0.05146
1173.96524,0.05253
1171.90566,0.05347
1169.84607,0.05406
1167.78648,0.05416
1165.72689,0.05400
1163.66730,0.05373
1161.60772,0.05329
1159.54813,0.05274
1157.48854,0.05207
1155.42895,0.05116
1153.36936,0.05007
1151.30977,0.04901
1149.25019,0.04809
1147.19060,0.04722
1145.13101,0.04643
1143.07142,0.04583
1141.01183,0.04543
1138.95225,0.04518
1136.89266,0.04509
1134.83307,0.04510
1132.77348,0.04525
1130.71389,0.04557
1128.65431,0.04582
1126.59472,0.04591
1124.53513,0.04588
1122.47554,0.04585
1120.41595,0.04583
1118.35636,0.04583
1116.29678,0.04590
1114.23719,0.04603
1112.17760,0.04629
1110.11801,0.04680
1108.05842,0.04742
1105.99884,0.04793
1103.93925,0.04826
1101.87966,0.04845
1099.82007,0.04861
1097.76048,0.04878
1095.70089,0.04904
1093.64131,0.04950
1091.58172,0.05020
1089.52213,0.05117
1087.46254,0.05239
1085.40295,0.05372
1083.34337,0.05510
1081.28378,0.05643
1079.22419,0.05759
1077.16460,0.05843
1075.10501,0.05889
1073.04543,0.05916
1070.98584,0.05928
1068.92625,0.05908
1066.86666,0.05869
1064.80707,0.05827
1062.74748,0.05793
1060.68790,0.05771
1058.62831,0.05746
1056.56872,0.05708
1054.50913,0.05669
1052.44954,0.05629
1050.38996,0.05574
1048.33037,0.05511
1046.27078,0.05445
1044.21119,0.05367
1042.15160,0.05283
1040.09201,0.05191
1038.03243,0.05083
1035.97284,0.04970
1033.91325,0.04869
1031.85366,0.04780
1029.79407,0.04690
1027.73449,0.04602
1025.67490,0.04515
1023.61531,0.04427
1021.55572,0.04342
1019.49613,0.04260
1017.43655,0.04191
1015.37696,0.04133
1013.31737,0.04065
1011.25778,0.03978
1009.19819,0.03877
1007.13860,0.03771
1005.07902,0.03676
1003.01943,0.03596
1000.95984,0.03520
998.90025,0.03444
996.84066,0.03377
994.78108,0.03323
992.72149,0.03283
990.66190,0.03245
988.60231,0.03197
986.54272,0.03150
984.48313,0.03108
982.42355,0.03073
980.36396,0.03055
978.30437,0.03038
976.24478,0.03014
974.18519,0.02993
972.12561,0.02979
970.06602,0.02962
968.00643,0.02937
965.94684,0.02926
963.88725,0.02938
961.82767,0.02944
959.76808,0.02928
957.70849,0.02903
955.64890,0.02888
953.58931,0.02877
951.52972,0.02857
949.47014,0.02836
947.41055,0.02829
945.35096,0.02835
943.29137,0.02838
941.23178,0.02838
939.17220,0.02844
937.11261,0.02850
935.05302,0.02848
932.99343,0.02851
930.93384,0.02850
928.87425,0.02828
926.81467,0.02802
924.75508,0.02776
922.69549,0.02739
920.63590,0.02697
918.57631,0.02657
916.51673,0.02621
914.45714,0.02596
912.39755,0.02587
910.33796,0.02584
908.27837,0.02585
906.21879,0.02590
904.15920,0.02603
902.09961,0.02616
900.04002,0.02610
897.98043,0.02588
895.92084,0.02563
893.86126,0.02536
891.80167,0.02513
889.74208,0.02499
887.68249,0.02488
885.62290,0.02476
883.56332,0.02459
881.50373,0.02428
879.44414,0.02393
877.38455,0.02373
875.32496,0.02368
873.26537,0.02371
871.20579,0.02365
869.14620,0.02343
867.08661,0.02327
865.02702,0.02328
862.96743,0.02329
860.90785,0.02324
858.84826,0.02320
856.78867,0.02320
854.72908,0.02326
852.66949,0.02336
850.60991,0.02344
848.55032,0.02357
846.49073,0.02371
844.43114,0.02375
842.37155,0.02379
840.31196,0.02388
838.25238,0.02403
836.19279,0.02436
834.13320,0.02485
832.07361,0.02530
830.01402,0.02563
827.95444,0.02587
825.89485,0.02612
823.83526,0.02634
821.77567,0.02635
819.71608,0.02623
817.65649,0.02629
815.59691,0.02664
813.53732,0.02712
811.47773,0.02750
809.41814,0.02780
807.35855,0.02815
805.29897,0.02840
803.23938,0.02856
801.17979,0.02878
799.12020,0.02903
797.06061,0.02919
795.00103,0.02925
792.94144,0.02937
790.88185,0.02961
788.82226,0.02994
786.76267,0.03032
784.70308,0.03068
782.64350,0.03095
780.58391,0.03122
778.52432,0.03162
776.46473,0.03204
774.40514,0.03235
772.34556,0.03266
770.28597,0.03300
768.22638,0.03325
766.16679,0.03342
764.10720,0.03363
762.04761,0.03388
759.98803,0.03408
757.92844,0.03429
755.86885,0.03464
753.80926,0.03514
751.74967,0.03558
749.69009,0.03582
747.63050,0.03598
745.57091,0.03620
743.51132,0.03643
741.45173,0.03657
739.39215,0.03671
737.33256,0.03696
735.27297,0.03734
733.21338,0.03781
731.15379,0.03825
729.09420,0.03864
727.03462,0.03911
724.97503,0.03975
722.91544,0.04054
720.85585,0.04147
718.79626,0.04250
716.73668,0.04347
714.67709,0.04426
712.61750,0.04507
710.55791,0.04617
708.49832,0.04743
706.43873,0.04856
704.37915,0.04951
702.31956,0.05035
700.25997,0.05101
698.20038,0.05134
696.14079,0.05127
694.08121,0.05095
692.02162,0.05075
689.96203,0.05081
687.90244,0.05092
685.84285,0.05097
683.78327,0.05115
681.72368,0.05150
679.66409,0.05186
677.60450,0.05209
675.54491,0.05225
673.48532,0.05254
671.42574,0.05294
669.36615,0.05346
667.30656,0.05389
665.24697,0.05382
663.18738,0.05364
661.12780,0.05362
659.06821,0.05378
657.00862,0.05405
654.94903,0.05423
652.88944,0.05424
650.82985,0.05425
648.77027,0.05431
646.71068,0.05433
644.65109,0.05441
642.59150,0.05460
640.53191,0.05483
638.47233,0.05505
636.41274,0.05521
634.35315,0.05529
632.29356,0.05536
630.23397,0.05547
628.17439,0.05562
626.11480,0.05579
624.05521,0.05590
621.99562,0.05588
619.93603,0.05571
617.87644,0.05559
615.81686,0.05556
613.75727,0.05547
611.69768,0.05526
609.63809,0.05497
607.57850,0.05471
605.51892,0.05461
603.45933,0.05464
601.39974,0.05459
599.34015,0.05447
597.28056,0.05434
595.22097,0.05415
593.16139,0.05405
591.10180,0.05416
589.04221,0.05418
586.98262,0.05396
584.92303,0.05372
582.86345,0.05376
580.80386,0.05397
578.74427,0.05399
576.68468,0.05386
574.62509,0.05389
572.56551,0.05403
570.50592,0.05402
568.44633,0.05395
566.38674,0.05389
564.32715,0.05372
562.26756,0.05360
560.20798,0.05369
558.14839,0.05392
556.08880,0.05404
554.02921,0.05399
551.96962,0.05387
549.91004,0.05373
547.85045,0.05353
545.79086,0.05317
543.73127,0.05278
541.67168,0.05278
539.61209,0.05308
537.55251,0.05314
535.49292,0.05294
533.43333,0.05280
531.37374,0.05288
529.31415,0.05306
527.25457,0.05309
525.19498,0.05290
523.13539,0.05248
521.07580,0.05190
519.01621,0.05141
516.95663,0.05114
514.89704,0.05090
512.83745,0.05039
510.77786,0.04969
508.71827,0.04910
506.65868,0.04867
504.59910,0.04834
502.53951,0.04808
500.47992,0.04776
498.42033,0.04731
496.36074,0.04691
494.30116,0.04663
492.24157,0.04634
490.18198,0.04610
488.12239,0.04592
486.06280,0.04560
484.00321,0.04517
481.94363,0.04487
479.88404,0.04471
477.82445,0.04470
475.76486,0.04475
473.70527,0.04453
471.64569,0.04425
469.58610,0.04430
467.52651,0.04441
465.46692,0.04436
463.40733,0.04422
461.34775,0.04385
459.28816,0.04345
457.22857,0.04332
455.16898,0.04321
453.10939,0.04289
451.04980,0.04245
448.99022,0.04214
446.93063,0.04195
444.87104,0.04166
442.81145,0.04114
440.75186,0.04053
438.69228,0.03988
436.63269,0.03917
434.57310,0.03877
432.51351,0.03868
430.45392,0.03869
428.39433,0.03871
426.33475,0.03858
424.27516,0.03851
422.21557,0.03855
420.15598,0.03830
418.09639,0.03769
416.03681,0.03722
413.97722,0.03677
411.91763,0.03637
409.85804,0.03628
407.79845,0.03620
405.73887,0.03581
403.67928,0.03499
401.61969,0.03402
399.56010,0.03315
