3997.66060,0.07452
3995.60101,0.07455
3993.54142,0.07486
3991.48183,0.07514
3989.42224,0.07521
3987.36265,0.07487
3985.30307,0.07421
3983.24348,0.07385
3981.18389,0.07370
3979.12430,0.07344
3977.06471,0.07361
3975.00513,0.07424
3972.94554,0.07464
3970.88595,0.07461
3968.82636,0.07437
3966.76677,0.07409
3964.70719,0.07386
3962.64760,0.07415
3960.58801,0.07476
3958.52842,0.07471
3956.46883,0.07395
3954.40924,0.07323
3952.34966,0.07272
3950.29007,0.07239
3948.23048,0.07260
3946.17089,0.07330
3944.11130,0.07354
3942.05172,0.07306
3939.99213,0.07273
3937.93254,0.07271
3935.87295,0.07251
3933.81336,0.07212
3931.75377,0.07185
3929.69419,0.07188
3927.63460,0.07193
3925.57501,0.07143
3923.51542,0.07096
3921.45583,0.07111
3919.39625,0.07131
3917.33666,0.07149
3915.27707,0.07163
3913.21748,0.07142
3911.15789,0.07130
3909.09831,0.07111
3907.03872,0.07033
3904.97913,0.06946
3902.91954,0.06937
3900.85995,0.07035
3898.80036,0.07168
3896.74078,0.07212
3894.68119,0.07139
3892.62160,0.07032
3890.56201,0.06966
3888.50242,0.06920
3886.44284,0.06886
3884.38325,0.06900
3882.32366,0.06956
3880.26407,0.07025
3878.20448,0.07022
3876.14489,0.06971
3874.08531,0.06950
3872.02572,0.06909
3869.96613,0.06886
3867.90654,0.06910
3865.84695,0.06891
3863.78737,0.06873
3861.72778,0.06877
3859.66819,0.06863
3857.60860,0.06813
3855.54901,0.06683
3853.48943,0.06569
3851.42984,0.06635
3849.37025,0.06712
3847.31066,0.06732
3845.25107,0.06724
3843.19148,0.06718
3841.13190,0.06699
3839.07231,0.06657
3837.01272,0.06694
3834.95313,0.06778
3832.89354,0.06794
3830.83396,0.06755
3828.77437,0.06713
3826.71478,0.06682
3824.65519,0.06645
3822.59560,0.06616
3820.53601,0.06626
3818.47643,0.06644
3816.41684,0.06653
3814.35725,0.06666
3812.29766,0.06652
3810.23807,0.06602
3808.17849,0.06568
3806.11890,0.06617
3804.05931,0.06662
3801.99972,0.06630
3799.94013,0.06596
3797.88055,0.06547
3795.82096,0.06491
3793.76137,0.06511
3791.70178,0.06541
3789.64219,0.06538
3787.58260,0.06557
3785.52302,0.06566
3783.46343,0.06533
3781.40384,0.06541
3779.34425,0.06601
3777.28466,0.06605
3775.22508,0.06547
3773.16549,0.06460
3771.10590,0.06346
3769.04631,0.06281
3766.98672,0.06319
3764.92713,0.06399
3762.86755,0.06431
3760.80796,0.06394
3758.74837,0.06321
3756.68878,0.06262
3754.62919,0.06260
3752.56961,0.06273
3750.51002,0.06288
3748.45043,0.06319
3746.39084,0.06284
3744.33125,0.06248
3742.27167,0.06292
3740.21208,0.06270
3738.15249,0.06190
3736.09290,0.06140
3734.03331,0.06145
3731.97372,0.06147
3729.91414,0.06090
3727.85455,0.06013
3725.79496,0.05971
3723.73537,0.06015
3721.67578,0.06130
3719.61620,0.06222
3717.55661,0.06212
3715.49702,0.06113
3713.43743,0.06019
3711.37784,0.06056
3709.31825,0.06144
3707.25867,0.06097
3705.19908,0.05978
3703.13949,0.05927
3701.07990,0.05987
3699.02031,0.06075
3696.96073,0.06096
3694.90114,0.06032
3692.84155,0.05920
3690.78196,0.05837
3688.72237,0.05861
3686.66279,0.05960
3684.60320,0.06043
3682.54361,0.06090
3680.48402,0.06117
3678.42443,0.06120
3676.36484,0.06095
3674.30526,0.06084
3672.24567,0.06078
3670.18608,0.06088
3668.12649,0.06111
3666.06690,0.06102
3664.00732,0.06117
3661.94773,0.06144
3659.88814,0.06134
3657.82855,0.06145
3655.76896,0.06205
3653.70937,0.06225
3651.64979,0.06197
3649.59020,0.06201
3647.53061,0.06261
3645.47102,0.06322
3643.41143,0.06376
3641.35185,0.06395
3639.29226,0.06385
3637.23267,0.06432
3635.17308,0.06507
3633.11349,0.06502
3631.05391,0.06426
3628.99432,0.06418
3626.93473,0.06573
3624.87514,0.06697
3622.81555,0.06712
3620.75596,0.06732
3618.69638,0.06820
3616.63679,0.06926
3614.57720,0.07028
3612.51761,0.07110
3610.45802,0.07133
3608.39844,0.07126
3606.33885,0.07143
3604.27926,0.07198
3602.21967,0.07291
3600.16008,0.07375
3598.10049,0.07383
3596.04091,0.07384
3593.98132,0.07474
3591.92173,0.07529
3589.86214,0.07458
3587.80255,0.07404
3585.74297,0.07478
3583.68338,0.07595
3581.62379,0.07720
3579.56420,0.07843
3577.50461,0.07928
3575.44503,0.07988
3573.38544,0.08024
3571.32585,0.08060
3569.26626,0.08089
3567.20667,0.08098
3565.14708,0.08178
3563.08750,0.08324
3561.02791,0.08452
3558.96832,0.08531
3556.90873,0.08565
3554.84914,0.08572
3552.78956,0.08630
3550.72997,0.08734
3548.67038,0.08799
3546.61079,0.08877
3544.55120,0.09004
3542.49161,0.09084
3540.43203,0.09103
3538.37244,0.09140
3536.31285,0.09208
3534.25326,0.09290
3532.19367,0.09366
3530.13409,0.09407
3528.07450,0.09453
3526.01491,0.09534
3523.95532,0.09637
3521.89573,0.09754
3519.83615,0.09847
3517.77656,0.09926
3515.71697,0.10004
3513.65738,0.10054
3511.59779,0.10090
3509.53820,0.10136
3507.47862,0.10189
3505.41903,0.10256
3503.35944,0.10355
3501.29985,0.10477
3499.24026,0.10571
3497.18068,0.10649
3495.12109,0.10731
3493.06150,0.10801
3491.00191,0.10867
3488.94232,0.10912
3486.88273,0.10920
3484.82315,0.10959
3482.76356,0.11062
3480.70397,0.11172
3478.64438,0.11258
3476.58479,0.11348
3474.52521,0.11464
3472.46562,0.11558
3470.40603,0.11612
3468.34644,0.11678
3466.28685,0.11726
3464.22727,0.11768
3462.16768,0.11863
3460.10809,0.11947
3458.04850,0.12002
3455.98891,0.12071
3453.92932,0.12171
3451.86974,0.12261
3449.81015,0.12273
3447.75056,0.12279
3445.69097,0.12379
3443.63138,0.12518
3441.57180,0.12623
3439.51221,0.12694
3437.45262,0.12753
3435.39303,0.12847
3433.33344,0.12979
3431.27385,0.13056
3429.21427,0.13071
3427.15468,0.13134
3425.09509,0.13227
3423.03550,0.13285
3420.97591,0.13368
3418.91633,0.13517
3416.85674,0.13674
3414.79715,0.13795
3412.73756,0.13876
3410.67797,0.13921
3408.61839,0.13960
3406.55880,0.14029
3404.49921,0.14111
3402.43962,0.14197
3400.38003,0.14321
3398.32044,0.14463
3396.26086,0.14549
3394.20127,0.14603
3392.14168,0.14672
3390.08209,0.14743
3388.02250,0.14830
3385.96292,0.14934
3383.90333,0.15031
3381.84374,0.15147
3379.78415,0.15292
3377.72456,0.15409
3375.66497,0.15480
3373.60539,0.15556
3371.54580,0.15667
3369.48621,0.15785
3367.42662,0.15903
3365.36703,0.16034
3363.30745,0.16175
3361.24786,0.16345
3359.18827,0.16547
3357.12868,0.16719
3355.06909,0.16854
3353.00951,0.16986
3350.94992,0.17122
3348.89033,0.17310
3346.83074,0.17560
3344.77115,0.17796
3342.71156,0.17967
3340.65198,0.18138
3338.59239,0.18347
3336.53280,0.18544
3334.47321,0.18747
3332.41362,0.18994
3330.35404,0.19244
3328.29445,0.19485
3326.23486,0.19761
3324.17527,0.20034
3322.11568,0.20261
3320.05609,0.20496
3317.99651,0.20810
3315.93692,0.21167
3313.87733,0.21453
3311.81774,0.21705
3309.75815,0.22018
3307.69857,0.22348
3305.63898,0.22638
3303.57939,0.22932
3301.51980,0.23256
3299.46021,0.23539
3297.40063,0.23771
3295.34104,0.24003
3293.28145,0.24247
3291.22186,0.24499
3289.16227,0.24714
3287.10268,0.24875
3285.04310,0.24985
3282.98351,0.25044
3280.92392,0.25058
3278.86433,0.25044
3276.80474,0.25037
3274.74516,0.25007
3272.68557,0.24904
3270.62598,0.24713
3268.56639,0.24477
3266.50680,0.24235
3264.44721,0.23947
3262.38763,0.23620
3260.32804,0.23291
3258.26845,0.22958
3256.20886,0.22630
3254.14927,0.22299
3252.08969,0.21971
3250.03010,0.21682
3247.97051,0.21411
3245.91092,0.21115
3243.85133,0.20809
3241.79175,0.20531
3239.73216,0.20273
3237.67257,0.20000
3235.61298,0.19751
3233.55339,0.19580
3231.49380,0.19412
3229.43422,0.19158
3227.37463,0.18890
3225.31504,0.18672
3223.25545,0.18482
3221.19586,0.18299
3219.13628,0.18109
3217.07669,0.17946
3215.01710,0.17810
3212.95751,0.17666
3210.89792,0.17525
3208.83833,0.17363
3206.77875,0.17184
3204.71916,0.17033
3202.65957,0.16883
3200.59998,0.16697
3198.54039,0.16512
3196.48081,0.16351
3194.42122,0.16203
3192.36163,0.16046
3190.30204,0.15881
3188.24245,0.15724
3186.18287,0.15559
3184.12328,0.15364
3182.06369,0.15159
3180.00410,0.14991
3177.94451,0.14881
3175.88492,0.14779
3173.82534,0.14617
3171.76575,0.14423
3169.70616,0.14265
3167.64657,0.14153
3165.58698,0.14037
3163.52740,0.13867
3161.46781,0.13692
3159.40822,0.13546
3157.34863,0.13407
3155.28904,0.13283
3153.22945,0.13159
3151.16987,0.13024
3149.11028,0.12903
3147.05069,0.12786
3144.99110,0.12648
3142.93151,0.12517
3140.87193,0.12429
3138.81234,0.12366
3136.75275,0.12290
3134.69316,0.12185
3132.63357,0.12065
3130.57399,0.11969
3128.51440,0.11912
3126.45481,0.11865
3124.39522,0.11818
3122.33563,0.11770
3120.27604,0.11721
3118.21646,0.11681
3116.15687,0.11644
3114.09728,0.11620
3112.03769,0.11618
3109.97810,0.11599
3107.91852,0.11555
3105.85893,0.11528
3103.79934,0.11527
3101.73975,0.11535
3099.68016,0.11570
3097.62057,0.11596
3095.56099,0.11586
3093.50140,0.11631
3091.44181,0.11717
3089.38222,0.11740
3087.32263,0.11737
3085.26305,0.11758
3083.20346,0.11750
3081.14387,0.11726
3079.08428,0.11747
3077.02469,0.11762
3074.96511,0.11725
3072.90552,0.11694
3070.84593,0.11698
3068.78634,0.11708
3066.72675,0.11682
3064.66716,0.11639
3062.60758,0.11642
3060.54799,0.11651
3058.48840,0.11590
3056.42881,0.11479
3054.36922,0.11392
3052.30964,0.11325
3050.25005,0.11236
3048.19046,0.11150
3046.13087,0.11066
3044.07128,0.10950
3042.01169,0.10839
3039.95211,0.10756
3037.89252,0.10660
3035.83293,0.10548
3033.77334,0.10455
3031.71375,0.10376
3029.65417,0.10297
3027.59458,0.10221
3025.53499,0.10140
3023.47540,0.10035
3021.41581,0.09909
3019.35623,0.09806
3017.29664,0.09774
3015.23705,0.09788
3013.17746,0.09755
3011.11787,0.09687
3009.05828,0.09625
3006.99870,0.09551
3004.93911,0.09518
3002.87952,0.09541
3000.81993,0.09594
2998.76034,0.09701
2996.70076,0.09796
2994.64117,0.09831
2992.58158,0.09858
2990.52199,0.09933
2988.46240,0.10069
2986.40281,0.10241
2984.34323,0.10421
2982.28364,0.10608
2980.22405,0.10799
2978.16446,0.10972
2976.10487,0.11136
2974.04529,0.11304
2971.98570,0.11466
2969.92611,0.11625
2967.86652,0.11754
2965.80693,0.11854
2963.74735,0.11954
2961.68776,0.12004
2959.62817,0.11952
2957.56858,0.11838
2955.50899,0.11718
2953.44940,0.11610
2951.38982,0.11525
2949.33023,0.11476
2947.27064,0.11481
2945.21105,0.11537
2943.15146,0.11634
2941.09188,0.11774
2939.03229,0.11956
2936.97270,0.12155
2934.91311,0.12316
2932.85352,0.12419
2930.79393,0.12478
2928.73435,0.12495
2926.67476,0.12493
2924.61517,0.12466
2922.55558,0.12359
2920.49599,0.12169
2918.43641,0.11890
2916.37682,0.11561
2914.31723,0.11322
2912.25764,0.11192
2910.19805,0.11044
2908.13847,0.10856
2906.07888,0.10698
2904.01929,0.10576
2901.95970,0.10467
2899.90011,0.10364
2897.84052,0.10257
2895.78094,0.10142
2893.72135,0.10042
2891.66176,0.09971
2889.60217,0.09928
2887.54258,0.09913
2885.48300,0.09929
2883.42341,0.09961
2881.36382,0.09995
2879.30423,0.10060
2877.24464,0.10132
2875.18505,0.10150
2873.12547,0.10101
2871.06588,0.10000
2869.00629,0.09869
2866.94670,0.09733
2864.88711,0.09590
2862.82753,0.09453
2860.76794,0.09356
2858.70835,0.09322
2856.64876,0.09343
2854.58917,0.09375
2852.52959,0.09336
2850.47000,0.09190
2848.41041,0.09000
2846.35082,0.08846
2844.29123,0.08720
2842.23164,0.08580
2840.17206,0.08427
2838.11247,0.08286
2836.05288,0.08169
2833.99329,0.08083
2831.93370,0.08018
2829.87412,0.07958
2827.81453,0.07910
2825.75494,0.07891
2823.69535,0.07877
2821.63576,0.07841
2819.57617,0.07794
2817.51659,0.07738
2815.45700,0.07682
2813.39741,0.07638
2811.33782,0.07588
2809.27823,0.07539
2807.21865,0.07524
2805.15906,0.07520
2803.09947,0.07489
2801.03988,0.07441
2798.98029,0.07398
2796.92071,0.07366
2794.86112,0.07336
2792.80153,0.07295
2790.74194,0.07251
2788.68235,0.07205
2786.62276,0.07164
2784.56318,0.07151
2782.50359,0.07139
2780.44400,0.07094
2778.38441,0.07049
2776.32482,0.07022
2774.26524,0.06993
2772.20565,0.06966
2770.14606,0.06962
2768.08647,0.06948
2766.02688,0.06885
2763.96729,0.06816
2761.90771,0.06784
2759.84812,0.06787
2757.78853,0.06788
2755.72894,0.06757
2753.66935,0.06713
2751.60977,0.06678
2749.55018,0.06657
2747.49059,0.06648
2745.43100,0.06627
2743.37141,0.06587
2741.31183,0.06557
2739.25224,0.06540
2737.19265,0.06525
2735.13306,0.06513
2733.07347,0.06487
2731.01388,0.06451
2728.95430,0.06429
2726.89471,0.06403
2724.83512,0.06354
2722.77553,0.06320
2720.71594,0.06322
2718.65636,0.06323
2716.59677,0.06300
2714.53718,0.06249
2712.47759,0.06184
2710.41800,0.06152
2708.35841,0.06156
2706.29883,0.06149
2704.23924,0.06129
2702.17965,0.06104
2700.12006,0.06074
2698.06047,0.06043
2696.00089,0.06025
2693.94130,0.06011
2691.88171,0.05988
2689.82212,0.05962
2687.76253,0.05948
2685.70295,0.05957
2683.64336,0.05969
2681.58377,0.05951
2679.52418,0.05906
2677.46459,0.05851
2675.40500,0.05809
2673.34542,0.05792
2671.28583,0.05793
2669.22624,0.05793
2667.16665,0.05788
2665.10706,0.05794
2663.04748,0.05800
2660.98789,0.05793
2658.92830,0.05788
2656.86871,0.05784
2654.80912,0.05771
2652.74953,0.05763
2650.68995,0.05758
2648.63036,0.05737
2646.57077,0.05700
2644.51118,0.05666
2642.45159,0.05655
2640.39201,0.05646
2638.33242,0.05617
2636.27283,0.05584
2634.21324,0.05562
2632.15365,0.05534
2630.09407,0.05523
2628.03448,0.05532
2625.97489,0.05489
2623.91530,0.05417
2621.85571,0.05382
2619.79612,0.05360
2617.73654,0.05333
2615.67695,0.05315
2613.61736,0.05312
2611.55777,0.05315
2609.49818,0.05287
2607.43860,0.05233
2605.37901,0.05187
2603.31942,0.05164
2601.25983,0.05180
2599.20024,0.05201
2597.14065,0.05189
2595.08107,0.05169
2593.02148,0.05139
2590.96189,0.05089
2588.90230,0.05050
2586.84271,0.05019
2584.78313,0.04981
2582.72354,0.04960
2580.66395,0.04981
2578.60436,0.05002
2576.54477,0.04983
2574.48519,0.04946
2572.42560,0.04919
2570.36601,0.04913
2568.30642,0.04899
2566.24683,0.04842
2564.18724,0.04771
2562.12766,0.04737
2560.06807,0.04748
2558.00848,0.04751
2555.94889,0.04743
2553.88930,0.04741
2551.82972,0.04712
2549.77013,0.04660
2547.71054,0.04648
2545.65095,0.04680
2543.59136,0.04703
2541.53177,0.04725
2539.47219,0.04769
2537.41260,0.04782
2535.35301,0.04711
2533.29342,0.04617
2531.23383,0.04572
2529.17425,0.04552
2527.11466,0.04527
2525.05507,0.04518
2522.99548,0.04541
2520.93589,0.04557
2518.87631,0.04519
2516.81672,0.04478
2514.75713,0.04477
2512.69754,0.04479
2510.63795,0.04466
2508.57836,0.04447
2506.51878,0.04450
2504.45919,0.04466
2502.39960,0.04459
2500.34001,0.04452
2498.28042,0.04458
2496.22084,0.04440
2494.16125,0.04400
2492.10166,0.04362
2490.04207,0.04321
2487.98248,0.04298
2485.92289,0.04306
2483.86331,0.04333
2481.80372,0.04362
2479.74413,0.04368
2477.68454,0.04360
2475.62495,0.04367
2473.56537,0.04370
2471.50578,0.04355
2469.44619,0.04342
2467.38660,0.04309
2465.32701,0.04254
2463.26743,0.04245
2461.20784,0.04280
2459.14825,0.04281
2457.08866,0.04252
2455.02907,0.04227
2452.96948,0.04185
2450.90990,0.04145
2448.85031,0.04134
2446.79072,0.04134
2444.73113,0.04136
2442.67154,0.04154
2440.61196,0.04173
2438.55237,0.04164
2436.49278,0.04139
2434.43319,0.04104
2432.37360,0.04065
2430.31401,0.04043
2428.25443,0.04042
2426.19484,0.04067
2424.13525,0.04089
2422.07566,0.04055
2420.01607,0.03991
2417.95649,0.03967
2415.89690,0.03982
2413.83731,0.03974
2411.77772,0.03945
2409.71813,0.03970
2407.65855,0.04010
2405.59896,0.03989
2403.53937,0.03957
2401.47978,0.03953
2399.42019,0.03950
2397.36060,0.03928
2395.30102,0.03900
2393.24143,0.03904
2391.18184,0.03908
2389.12225,0.03874
2387.06266,0.03840
2385.00308,0.03816
2382.94349,0.03788
2380.88390,0.03780
2378.82431,0.03802
2376.76472,0.03805
2374.70513,0.03782
2372.64555,0.03785
2370.58596,0.03785
2368.52637,0.03767
2366.46678,0.03761
2364.40719,0.03740
2362.34761,0.03732
2360.28802,0.03776
2358.22843,0.03813
2356.16884,0.03823
2354.10925,0.03831
2352.04967,0.03830
2349.99008,0.03837
2347.93049,0.03838
2345.87090,0.03806
2343.81131,0.03778
2341.75172,0.03781
2339.69214,0.03750
2337.63255,0.03724
2335.57296,0.03794
2333.51337,0.03870
2331.45378,0.03847
2329.39420,0.03821
2327.33461,0.03886
2325.27502,0.03955
2323.21543,0.03939
2321.15584,0.03889
2319.09625,0.03874
2317.03667,0.03854
2314.97708,0.03794
2312.91749,0.03736
2310.85790,0.03720
2308.79831,0.03737
2306.73873,0.03759
2304.67914,0.03748
2302.61955,0.03690
2300.55996,0.03635
2298.50037,0.03625
2296.44079,0.03631
2294.38120,0.03635
2292.32161,0.03623
2290.26202,0.03583
2288.20243,0.03553
2286.14284,0.03531
2284.08326,0.03493
2282.02367,0.03472
2279.96408,0.03475
2277.90449,0.03472
2275.84490,0.03448
2273.78532,0.03378
2271.72573,0.03284
2269.66614,0.03227
2267.60655,0.03231
2265.54696,0.03273
2263.48737,0.03296
2261.42779,0.03286
2259.36820,0.03295
2257.30861,0.03310
2255.24902,0.03261
2253.18943,0.03195
2251.12985,0.03176
2249.07026,0.03158
2247.01067,0.03103
2244.95108,0.03069
2242.89149,0.03084
2240.83191,0.03069
2238.77232,0.03051
2236.71273,0.03096
2234.65314,0.03103
2232.59355,0.03020
2230.53396,0.02960
2228.47438,0.02986
2226.41479,0.03022
2224.35520,0.03045
2222.29561,0.03057
2220.23602,0.02996
2218.17644,0.02906
2216.11685,0.02865
2214.05726,0.02873
2211.99767,0.02882
2209.93808,0.02845
2207.87849,0.02797
2205.81891,0.02740
2203.75932,0.02690
2201.69973,0.02706
2199.64014,0.02730
2197.58055,0.02687
2195.52097,0.02631
2193.46138,0.02638
2191.40179,0.02664
2189.34220,0.02652
2187.28261,0.02607
2185.22303,0.02544
2183.16344,0.02508
2181.10385,0.02552
2179.04426,0.02611
2176.98467,0.02569
2174.92508,0.02462
2172.86550,0.02401
2170.80591,0.02455
2168.74632,0.02548
2166.68673,0.02502
2164.62714,0.02348
2162.56756,0.02229
2160.50797,0.02143
2158.44838,0.02060
2156.38879,0.02089
2154.32920,0.02242
2152.26961,0.02366
2150.21003,0.02440
2148.15044,0.02469
2146.09085,0.02378
2144.03126,0.02274
2141.97167,0.02294
2139.91209,0.02365
2137.85250,0.02395
2135.79291,0.02424
2133.73332,0.02497
2131.67373,0.02534
2129.61415,0.02517
2127.55456,0.02526
2125.49497,0.02549
2123.43538,0.02576
2121.37579,0.02600
2119.31620,0.02600
2117.25662,0.02657
2115.19703,0.02754
2113.13744,0.02777
2111.07785,0.02749
2109.01826,0.02728
2106.95868,0.02733
2104.89909,0.02749
2102.83950,0.02744
2100.77991,0.02720
2098.72032,0.02670
2096.66073,0.02594
2094.60115,0.02533
2092.54156,0.02529
2090.48197,0.02592
2088.42238,0.02674
2086.36279,0.02685
2084.30321,0.02614
2082.24362,0.02565
2080.18403,0.02579
2078.12444,0.02581
2076.06485,0.02540
2074.00527,0.02506
2071.94568,0.02519
2069.88609,0.02538
2067.82650,0.02503
2065.76691,0.02451
2063.70732,0.02411
2061.64774,0.02346
2059.58815,0.02301
2057.52856,0.02331
2055.46897,0.02384
2053.40938,0.02432
2051.34980,0.02478
2049.29021,0.02437
2047.23062,0.02290
2045.17103,0.02180
2043.11144,0.02171
2041.05185,0.02225
2038.99227,0.02264
2036.93268,0.02205
2034.87309,0.02073
2032.81350,0.01935
2030.75391,0.01832
2028.69433,0.01835
2026.63474,0.01918
2024.57515,0.01929
2022.51556,0.01890
2020.45597,0.01888
2018.39639,0.01915
2016.33680,0.01985
2014.27721,0.02056
2012.21762,0.02097
2010.15803,0.02111
2008.09844,0.02042
2006.03886,0.01941
2003.97927,0.01887
2001.91968,0.01872
1999.86009,0.01918
1997.80050,0.02022
1995.74092,0.02120
1993.68133,0.02157
1991.62174,0.02106
1989.56215,0.02017
1987.50256,0.01990
1985.44297,0.02019
1983.38339,0.02066
1981.32380,0.02126
1979.26421,0.02088
1977.20462,0.01939
1975.14503,0.01865
1973.08545,0.01854
1971.02586,0.01824
1968.96627,0.01875
1966.90668,0.01957
1964.84709,0.01958
1962.78751,0.01911
1960.72792,0.01842
1958.66833,0.01810
1956.60874,0.01885
1954.54915,0.01985
1952.48956,0.02007
1950.42998,0.01964
1948.37039,0.01920
1946.31080,0.01955
1944.25121,0.02036
1942.19162,0.02054
1940.13204,0.02029
1938.07245,0.02016
1936.01286,0.02024
1933.95327,0.02063
1931.89368,0.02065
1929.83409,0.01999
1927.77451,0.01970
1925.71492,0.01994
1923.65533,0.02030
1921.59574,0.02074
1919.53615,0.02094
1917.47657,0.02067
1915.41698,0.02049
1913.35739,0.02074
1911.29780,0.02093
1909.23821,0.02076
1907.17863,0.02041
1905.11904,0.02012
1903.05945,0.02025
1900.99986,0.02066
1898.94027,0.02075
1896.88068,0.02072
1894.82110,0.02079
1892.76151,0.02073
1890.70192,0.02048
1888.64233,0.02029
1886.58274,0.02034
1884.52316,0.02024
1882.46357,0.02009
1880.40398,0.02037
1878.34439,0.02071
1876.28480,0.02073
1874.22521,0.02059
1872.16563,0.02033
1870.10604,0.02000
1868.04645,0.01988
1865.98686,0.02007
1863.92727,0.02042
1861.86769,0.02035
1859.80810,0.01981
1857.74851,0.01958
1855.68892,0.01981
1853.62933,0.02011
1851.56975,0.02018
1849.51016,0.01998
1847.45057,0.01979
1845.39098,0.01958
1843.33139,0.01918
1841.27180,0.01908
1839.21222,0.01929
1837.15263,0.01948
1835.09304,0.01945
1833.03345,0.01925
1830.97386,0.01922
1828.91428,0.01939
1826.85469,0.01949
1824.79510,0.01950
1822.73551,0.01960
1820.67592,0.01968
1818.61633,0.01956
1816.55675,0.01929
1814.49716,0.01920
1812.43757,0.01928
1810.37798,0.01941
1808.31839,0.01943
1806.25881,0.01934
1804.19922,0.01948
1802.13963,0.01985
1800.08004,0.02003
1798.02045,0.01983
1795.96087,0.01955
1793.90128,0.01932
1791.84169,0.01942
1789.78210,0.01984
1787.72251,0.02006
1785.66292,0.02013
1783.60334,0.02021
1781.54375,0.02018
1779.48416,0.02021
1777.42457,0.02050
1775.36498,0.02058
1773.30540,0.02043
1771.24581,0.02056
1769.18622,0.02104
1767.12663,0.02139
1765.06704,0.02155
1763.00745,0.02169
1760.94787,0.02188
1758.88828,0.02199
1756.82869,0.02209
1754.76910,0.02241
1752.70951,0.02290
1750.64993,0.02354
1748.59034,0.02417
1746.53075,0.02466
1744.47116,0.02518
1742.41157,0.02590
1740.35199,0.02672
1738.29240,0.02735
1736.23281,0.02768
1734.17322,0.02823
1732.11363,0.02914
1730.05404,0.02976
1727.99446,0.03041
1725.93487,0.03134
1723.87528,0.03245
1721.81569,0.03338
1719.75610,0.03415
1717.69652,0.03541
1715.63693,0.03751
1713.57734,0.03987
1711.51775,0.04241
1709.45816,0.04539
1707.39857,0.04961
1705.33899,0.05592
1703.27940,0.06314
1701.21981,0.07271
1699.16022,0.08499
1697.10063,0.09390
1695.04105,0.10038
1692.98146,0.10519
1690.92187,0.10921
1688.86228,0.11396
1686.80269,0.11878
1684.74311,0.12572
1682.68352,0.13470
1680.62393,0.14163
1678.56434,0.14777
1676.50475,0.15509
1674.44516,0.16412
1672.38558,0.17225
1670.32599,0.18048
1668.26640,0.19049
1666.20681,0.19902
1664.14722,0.20723
1662.08764,0.21733
1660.02805,0.22660
1657.96846,0.23332
1655.90887,0.23828
1653.84928,0.24496
1651.78969,0.25310
1649.73011,0.25593
1647.67052,0.25772
1645.61093,0.26123
1643.55134,0.26368
1641.49175,0.26513
1639.43217,0.26670
1637.37258,0.26922
1635.31299,0.27431
1633.25340,0.27917
1631.19381,0.28199
1629.13423,0.28485
1627.07464,0.28765
1625.01505,0.28866
1622.95546,0.28690
1620.89587,0.28159
1618.83628,0.27263
1616.77670,0.25857
1614.71711,0.24149
1612.65752,0.22488
1610.59793,0.20773
1608.53834,0.19052
1606.47876,0.17490
1604.41917,0.16155
1602.35958,0.15027
1600.29999,0.14090
1598.24040,0.13321
1596.18081,0.12688
1594.12123,0.12158
1592.06164,0.11719
1590.00205,0.11360
1587.94246,0.11089
1585.88287,0.10905
1583.82329,0.10801
1581.76370,0.10771
1579.70411,0.10796
1577.64452,0.10895
1575.58493,0.11132
1573.52535,0.11394
1571.46576,0.11652
1569.40617,0.12071
1567.34658,0.12579
1565.28699,0.13078
1563.22740,0.13554
1561.16782,0.14020
1559.10823,0.14872
1557.04864,0.15915
1554.98905,0.16627
1552.92946,0.17318
1550.86988,0.18044
1548.81029,0.18757
1546.75070,0.19379
1544.69111,0.19942
1542.63152,0.20488
1540.57193,0.21129
1538.51235,0.21805
1536.45276,0.22145
1534.39317,0.22407
1532.33358,0.22789
1530.27399,0.23097
1528.21441,0.23316
1526.15482,0.23537
1524.09523,0.23725
1522.03564,0.23953
1519.97605,0.24217
1517.91647,0.24343
1515.85688,0.24274
1513.79729,0.23935
1511.73770,0.23336
1509.67811,0.22593
1507.61852,0.21666
1505.55894,0.20565
1503.49935,0.19631
1501.43976,0.18752
1499.38017,0.17784
1497.32058,0.16725
1495.26100,0.15677
1493.20141,0.14757
1491.14182,0.13865
1489.08223,0.12964
1487.02264,0.12209
1484.96305,0.11614
1482.90347,0.11151
1480.84388,0.10817
1478.78429,0.10614
1476.72470,0.10539
1474.66511,0.10586
1472.60553,0.10761
1470.54594,0.10943
1468.48635,0.11017
1466.42676,0.11039
1464.36717,0.11086
1462.30759,0.11154
1460.24800,0.11229
1458.18841,0.11394
1456.12882,0.11700
1454.06923,0.11892
1452.00964,0.11929
1449.95006,0.11897
1447.89047,0.11803
1445.83088,0.11638
1443.77129,0.11413
1441.71170,0.11156
1439.65212,0.10888
1437.59253,0.10608
1435.53294,0.10338
1433.47335,0.10114
1431.41376,0.09919
1429.35417,0.09756
1427.29459,0.09651
1425.23500,0.09610
1423.17541,0.09631
1421.11582,0.09696
1419.05623,0.09813
1416.99665,0.09953
1414.93706,0.10059
1412.87747,0.10149
1410.81788,0.10237
1408.75829,0.10297
1406.69871,0.10313
1404.63912,0.10308
1402.57953,0.10281
1400.51994,0.10233
1398.46035,0.10179
1396.40076,0.10131
1394.34118,0.10104
1392.28159,0.10103
1390.22200,0.10099
1388.16241,0.10080
1386.10282,0.10038
1384.04324,0.09963
1381.98365,0.09858
1379.92406,0.09750
1377.86447,0.09650
1375.80488,0.09555
1373.74529,0.09480
1371.68571,0.09410
1369.62612,0.09303
1367.56653,0.09135
1365.50694,0.08925
1363.44735,0.08714
1361.38777,0.08533
1359.32818,0.08392
1357.26859,0.08279
1355.20900,0.08189
1353.14941,0.08134
1351.08983,0.08109
1349.03024,0.08099
1346.97065,0.08108
1344.91106,0.08128
1342.85147,0.08137
1340.79188,0.08145
1338.73230,0.08166
1336.67271,0.08181
1334.61312,0.08178
1332.55353,0.08167
1330.49394,0.08156
1328.43436,0.08145
1326.37477,0.08140
1324.31518,0.08144
1322.25559,0.08147
1320.19600,0.08145
1318.13641,0.08142
1316.07683,0.08137
1314.01724,0.08122
1311.95765,0.08099
1309.89806,0.08079
1307.83847,0.08062
1305.77889,0.08036
1303.71930,0.08004
1301.65971,0.07968
1299.60012,0.07930
1297.54053,0.07897
1295.48095,0.07861
1293.42136,0.07826
1291.36177,0.07807
1289.30218,0.07805
1287.24259,0.07814
1285.18300,0.07830
1283.12342,0.07847
1281.06383,0.07868
1279.00424,0.07896
1276.94465,0.07928
1274.88506,0.07975
1272.82548,0.08043
1270.76589,0.08120
1268.70630,0.08208
1266.64671,0.08318
1264.58712,0.08441
1262.52753,0.08546
1260.46795,0.08626
1258.40836,0.08697
1256.34877,0.08772
1254.28918,0.08847
1252.22959,0.08923
1250.17001,0.09017
1248.11042,0.09129
1246.05083,0.09237
1243.99124,0.09330
1241.93165,0.09410
1239.87207,0.09479
1237.81248,0.09534
1235.75289,0.09573
1233.69330,0.09598
1231.63371,0.09599
1229.57412,0.09570
1227.51454,0.09516
1225.45495,0.09443
1223.39536,0.09350
1221.33577,0.09230
1219.27618,0.09085
1217.21660,0.08925
1215.15701,0.08755
1213.09742,0.08570
1211.03783,0.08379
1208.97824,0.08191
1206.91865,0.08002
1204.85907,0.07813
1202.79948,0.07638
1200.73989,0.07484
1198.68030,0.07348
1196.62071,0.07226
1194.56113,0.07124
1192.50154,0.07050
1190.44195,0.07001
1188.38236,0.06968
1186.32277,0.06949
1184.26319,0.06952
1182.20360,0.06983
1180.14401,0.07051
1178.08442,0.07166
1176.02483,0.07321
1173.96524,0.07485
1171.90566,0.07633
1169.84607,0.07749
1167.78648,0.07827
1165.72689,0.07872
1163.66730,0.07889
1161.60772,0.07877
1159.54813,0.07836
1157.48854,0.07772
1155.42895,0.07692
1153.36936,0.07592
1151.30977,0.07482
1149.25019,0.07380
1147.19060,0.07291
1145.13101,0.07212
1143.07142,0.07155
1141.01183,0.07121
1138.95225,0.07110
1136.89266,0.07117
1134.83307,0.07127
1132.77348,0.07145
1130.71389,0.07182
1128.65431,0.07229
1126.59472,0.07266
1124.53513,0.07290
1122.47554,0.07323
1120.41595,0.07365
1118.35636,0.07400
1116.29678,0.07432
1114.23719,0.07472
1112.17760,0.07516
1110.11801,0.07569
1108.05842,0.07632
1105.99884,0.07691
1103.93925,0.07734
1101.87966,0.07752
1099.82007,0.07755
1097.76048,0.07774
1095.70089,0.07822
1093.64131,0.07873
1091.58172,0.07931
1089.52213,0.08024
1087.46254,0.08148
1085.40295,0.08289
1083.34337,0.08444
1081.28378,0.08600
1079.22419,0.08744
1077.16460,0.08864
1075.10501,0.08936
1073.04543,0.08971
1070.98584,0.08992
1068.92625,0.08990
1066.86666,0.08954
1064.80707,0.08892
1062.74748,0.08822
1060.68790,0.08753
1058.62831,0.08676
1056.56872,0.08575
1054.50913,0.08458
1052.44954,0.08346
1050.38996,0.08241
1048.33037,0.08144
1046.27078,0.08034
1044.21119,0.07895
1042.15160,0.07744
1040.09201,0.07585
1038.03243,0.07419
1035.97284,0.07266
1033.91325,0.07129
1031.85366,0.06988
1029.79407,0.06837
1027.73449,0.06677
1025.67490,0.06512
1023.61531,0.06353
1021.55572,0.06211
1019.49613,0.06088
1017.43655,0.05975
1015.37696,0.05864
1013.31737,0.05752
1011.25778,0.05632
1009.19819,0.05495
1007.13860,0.05352
1005.07902,0.05234
1003.01943,0.05135
1000.95984,0.05033
998.90025,0.04927
996.84066,0.04834
994.78108,0.04752
992.72149,0.04675
990.66190,0.04600
988.60231,0.04525
986.54272,0.04451
984.48313,0.04386
982.42355,0.04338
980.36396,0.04307
978.30437,0.04275
976.24478,0.04238
974.18519,0.04202
972.12561,0.04166
970.06602,0.04140
968.00643,0.04135
965.94684,0.04151
963.88725,0.04170
961.82767,0.04161
959.76808,0.04121
957.70849,0.04076
955.64890,0.04039
953.58931,0.04002
951.52972,0.03958
949.47014,0.03917
947.41055,0.03885
945.35096,0.03866
943.29137,0.03861
941.23178,0.03864
939.17220,0.03869
937.11261,0.03874
935.05302,0.03876
932.99343,0.03872
930.93384,0.03856
928.87425,0.03818
926.81467,0.03766
924.75508,0.03710
922.69549,0.03656
920.63590,0.03611
918.57631,0.03561
916.51673,0.03509
914.45714,0.03470
912.39755,0.03444
910.33796,0.03433
908.27837,0.03437
906.21879,0.03438
904.15920,0.03432
902.09961,0.03424
900.04002,0.03403
897.98043,0.03366
895.92084,0.03327
893.86126,0.03294
891.80167,0.03262
889.74208,0.03231
887.68249,0.03208
885.62290,0.03190
883.56332,0.03171
881.50373,0.03153
879.44414,0.03143
877.38455,0.03144
875.32496,0.03154
873.26537,0.03166
871.20579,0.03158
869.14620,0.03114
867.08661,0.03062
865.02702,0.03040
862.96743,0.03046
860.90785,0.03067
858.84826,0.03092
856.78867,0.03108
854.72908,0.03120
852.66949,0.03132
850.60991,0.03143
848.55032,0.03148
846.49073,0.03148
844.43114,0.03149
842.37155,0.03157
840.31196,0.03164
838.25238,0.03183
836.19279,0.03234
834.13320,0.03304
832.07361,0.03360
830.01402,0.03396
827.95444,0.03431
825.89485,0.03461
823.83526,0.03479
821.77567,0.03495
819.71608,0.03518
817.65649,0.03552
815.59691,0.03591
813.53732,0.03634
811.47773,0.03683
809.41814,0.03731
807.35855,0.03776
805.29897,0.03814
803.23938,0.03840
801.17979,0.03865
799.12020,0.03895
797.06061,0.03922
795.00103,0.03938
792.94144,0.03951
790.88185,0.03971
788.82226,0.04003
786.76267,0.04044
784.70308,0.04081
782.64350,0.04110
780.58391,0.04145
778.52432,0.04195
776.46473,0.04247
774.40514,0.04288
772.34556,0.04321
770.28597,0.04351
768.22638,0.04371
766.16679,0.04381
764.10720,0.04388
762.04761,0.04400
759.98803,0.04415
757.92844,0.04432
755.86885,0.04462
753.80926,0.04504
751.74967,0.04546
749.69009,0.04586
747.63050,0.04632
745.57091,0.04670
743.51132,0.04692
741.45173,0.04715
739.39215,0.04743
737.33256,0.04772
735.27297,0.04808
733.21338,0.04867
731.15379,0.04956
729.09420,0.05056
727.03462,0.05164
724.97503,0.05289
722.91544,0.05421
720.85585,0.05548
718.79626,0.05672
716.73668,0.05802
714.67709,0.05920
712.61750,0.06025
710.55791,0.06145
708.49832,0.06295
706.43873,0.06455
704.37915,0.06595
702.31956,0.06709
700.25997,0.06786
698.20038,0.06810
696.14079,0.06797
694.08121,0.06782
692.02162,0.06785
689.96203,0.06800
687.90244,0.06815
685.84285,0.06821
683.78327,0.06821
681.72368,0.06829
679.66409,0.06847
677.60450,0.06858
675.54491,0.06861
673.48532,0.06875
671.42574,0.06889
669.36615,0.06900
667.30656,0.06929
665.24697,0.06940
663.18738,0.06934
661.12780,0.06938
659.06821,0.06950
657.00862,0.06970
654.94903,0.06995
652.88944,0.07012
650.82985,0.07010
648.77027,0.07005
646.71068,0.07020
644.65109,0.07051
642.59150,0.07078
640.53191,0.07101
638.47233,0.07128
636.41274,0.07156
634.35315,0.07177
632.29356,0.07201
630.23397,0.07229
628.17439,0.07253
626.11480,0.07267
624.05521,0.07269
621.99562,0.07266
619.93603,0.07256
617.87644,0.07238
615.81686,0.07223
613.75727,0.07208
611.69768,0.07176
609.63809,0.07123
607.57850,0.07071
605.51892,0.07041
603.45933,0.07024
601.39974,0.07009
599.34015,0.06990
597.28056,0.06957
595.22097,0.06927
593.16139,0.06924
591.10180,0.06938
589.04221,0.06939
586.98262,0.06919
584.92303,0.06901
582.86345,0.06900
580.80386,0.06893
578.74427,0.06875
576.68468,0.06876
574.62509,0.06898
572.56551,0.06915
570.50592,0.06914
568.44633,0.06906
566.38674,0.06901
564.32715,0.06904
562.26756,0.06909
560.20798,0.06913
558.14839,0.06916
556.08880,0.06924
554.02921,0.06941
551.96962,0.06932
549.91004,0.06904
547.85045,0.06890
545.79086,0.06876
543.73127,0.06843
541.67168,0.06807
539.61209,0.06787
537.55251,0.06778
535.49292,0.06781
533.43333,0.06789
531.37374,0.06783
529.31415,0.06773
527.25457,0.06759
525.19498,0.06737
523.13539,0.06714
521.07580,0.06682
519.01621,0.06632
516.95663,0.06592
514.89704,0.06580
512.83745,0.06563
510.77786,0.06507
508.71827,0.06437
506.65868,0.06379
504.59910,0.06328
502.53951,0.06280
500.47992,0.06246
498.42033,0.06228
496.36074,0.06219
494.30116,0.06220
492.24157,0.06215
490.18198,0.06197
488.12239,0.06180
486.06280,0.06163
484.00321,0.06149
481.94363,0.06155
479.88404,0.06179
477.82445,0.06210
475.76486,0.06240
473.70527,0.06242
471.64569,0.06215
469.58610,0.06201
467.52651,0.06203
465.46692,0.06194
463.40733,0.06186
461.34775,0.06179
459.28816,0.06160
457.22857,0.06132
455.16898,0.06084
453.10939,0.06036
451.04980,0.06006
448.99022,0.05959
446.93063,0.05880
444.87104,0.05810
442.81145,0.05788
440.75186,0.05758
438.69228,0.05657
436.63269,0.05552
434.57310,0.05502
432.51351,0.05468
430.45392,0.05427
428.39433,0.05376
426.33475,0.05325
424.27516,0.05298
422.21557,0.05286
420.15598,0.05272
418.09639,0.05215
416.03681,0.05093
413.97722,0.04964
411.91763,0.04883
409.85804,0.04839
407.79845,0.04775
405.73887,0.04698
403.67928,0.04646
401.61969,0.04617
399.56010,0.04603
