3997.66060,0.02849
3995.60101,0.02880
3993.54142,0.02924
3991.48183,0.02940
3989.42224,0.02904
3987.36265,0.02840
3985.30307,0.02801
3983.24348,0.02813
3981.18389,0.02807
3979.12430,0.02785
3977.06471,0.02822
3975.00513,0.02858
3972.94554,0.02824
3970.88595,0.02760
3968.82636,0.02744
3966.76677,0.02780
3964.70719,0.02802
3962.64760,0.02814
3960.58801,0.02829
3958.52842,0.02787
3956.46883,0.02723
3954.40924,0.02733
3952.34966,0.02733
3950.29007,0.02644
3948.23048,0.02603
3946.17089,0.02702
3944.11130,0.02782
3942.05172,0.02765
3939.99213,0.02753
3937.93254,0.02748
3935.87295,0.02690
3933.81336,0.02580
3931.75377,0.02521
3929.69419,0.02583
3927.63460,0.02637
3925.57501,0.02590
3923.51542,0.02548
3921.45583,0.02588
3919.39625,0.02601
3917.33666,0.02588
3915.27707,0.02611
3913.21748,0.02610
3911.15789,0.02609
3909.09831,0.02609
3907.03872,0.02504
3904.97913,0.02322
3902.91954,0.02239
3900.85995,0.02310
3898.80036,0.02453
3896.74078,0.02551
3894.68119,0.02527
3892.62160,0.02444
3890.56201,0.02424
3888.50242,0.02416
3886.44284,0.02339
3884.38325,0.02313
3882.32366,0.02341
3880.26407,0.02352
3878.20448,0.02430
3876.14489,0.02485
3874.08531,0.02421
3872.02572,0.02293
3869.96613,0.02228
3867.90654,0.02279
3865.84695,0.02284
3863.78737,0.02258
3861.72778,0.02325
3859.66819,0.02381
3857.60860,0.02374
3855.54901,0.02317
3853.48943,0.02196
3851.42984,0.02216
3849.37025,0.02378
3847.31066,0.02469
3845.25107,0.02452
3843.19148,0.02389
3841.13190,0.02286
3839.07231,0.02167
3837.01272,0.02156
3834.95313,0.02250
3832.89354,0.02319
3830.83396,0.02348
3828.77437,0.02355
3826.71478,0.02353
3824.65519,0.02354
3822.59560,0.02291
3820.53601,0.02223
3818.47643,0.02276
3816.41684,0.02313
3814.35725,0.02312
3812.29766,0.02337
3810.23807,0.02309
3808.17849,0.02224
3806.11890,0.02246
3804.05931,0.02337
3801.99972,0.02296
3799.94013,0.02241
3797.88055,0.02275
3795.82096,0.02316
3793.76137,0.02380
3791.70178,0.02441
3789.64219,0.02467
3787.58260,0.02471
3785.52302,0.02432
3783.46343,0.02364
3781.40384,0.02340
3779.34425,0.02363
3777.28466,0.02396
3775.22508,0.02410
3773.16549,0.02404
3771.10590,0.02344
3769.04631,0.02260
3766.98672,0.02294
3764.92713,0.02375
3762.86755,0.02364
3760.80796,0.02294
3758.74837,0.02239
3756.68878,0.02252
3754.62919,0.02289
3752.56961,0.02210
3750.51002,0.02046
3748.45043,0.02029
3746.39084,0.02038
3744.33125,0.02037
3742.27167,0.02160
3740.21208,0.02228
3738.15249,0.02132
3736.09290,0.01963
3734.03331,0.01905
3731.97372,0.02009
3729.91414,0.02136
3727.85455,0.02164
3725.79496,0.02144
3723.73537,0.02190
3721.67578,0.02235
3719.61620,0.02260
3717.55661,0.02324
3715.49702,0.02306
3713.43743,0.02141
3711.37784,0.01982
3709.31825,0.02023
3707.25867,0.02148
3705.19908,0.02183
3703.13949,0.02114
3701.07990,0.02067
3699.02031,0.02178
3696.96073,0.02314
3694.90114,0.02323
3692.84155,0.02230
3690.78196,0.02082
3688.72237,0.01966
3686.66279,0.02031
3684.60320,0.02201
3682.54361,0.02314
3680.48402,0.02297
3678.42443,0.02196
3676.36484,0.02075
3674.30526,0.02030
3672.24567,0.02060
3670.18608,0.02057
3668.12649,0.02088
3666.06690,0.02189
3664.00732,0.02288
3661.94773,0.02303
3659.88814,0.02248
3657.82855,0.02241
3655.76896,0.02307
3653.70937,0.02299
3651.64979,0.02133
3649.59020,0.01951
3647.53061,0.02021
3645.47102,0.02257
3643.41143,0.02447
3641.35185,0.02530
3639.29226,0.02514
3637.23267,0.02474
3635.17308,0.02474
3633.11349,0.02471
3631.05391,0.02371
3628.99432,0.02254
3626.93473,0.02365
3624.87514,0.02542
3622.81555,0.02589
3620.75596,0.02516
3618.69638,0.02426
3616.63679,0.02445
3614.57720,0.02528
3612.51761,0.02563
3610.45802,0.02549
3608.39844,0.02562
3606.33885,0.02642
3604.27926,0.02728
3602.21967,0.02752
3600.16008,0.02742
3598.10049,0.02749
3596.04091,0.02769
3593.98132,0.02820
3591.92173,0.02856
3589.86214,0.02751
3587.80255,0.02614
3585.74297,0.02680
3583.68338,0.02860
3581.62379,0.03010
3579.56420,0.03058
3577.50461,0.03023
3575.44503,0.03038
3573.38544,0.03079
3571.32585,0.03089
3569.26626,0.03060
3567.20667,0.02999
3565.14708,0.03047
3563.08750,0.03216
3561.02791,0.03357
3558.96832,0.03427
3556.90873,0.03473
3554.84914,0.03480
3552.78956,0.03464
3550.72997,0.03493
3548.67038,0.03519
3546.61079,0.03522
3544.55120,0.03584
3542.49161,0.03641
3540.43203,0.03629
3538.37244,0.03645
3536.31285,0.03724
3534.25326,0.03795
3532.19367,0.03803
3530.13409,0.03754
3528.07450,0.03726
3526.01491,0.03760
3523.95532,0.03844
3521.89573,0.03972
3519.83615,0.04092
3517.77656,0.04135
3515.71697,0.04116
3513.65738,0.04108
3511.59779,0.04119
3509.53820,0.04152
3507.47862,0.04223
3505.41903,0.04280
3503.35944,0.04306
3501.29985,0.04338
3499.24026,0.04404
3497.18068,0.04473
3495.12109,0.04507
3493.06150,0.04516
3491.00191,0.04529
3488.94232,0.04556
3486.88273,0.04580
3484.82315,0.04620
3482.76356,0.04713
3480.70397,0.04806
3478.64438,0.04828
3476.58479,0.04810
3474.52521,0.04804
3472.46562,0.04828
3470.40603,0.04874
3468.34644,0.04928
3466.28685,0.04977
3464.22727,0.05032
3462.16768,0.05095
3460.10809,0.05110
3458.04850,0.05109
3455.98891,0.05146
3453.92932,0.05222
3451.86974,0.05327
3449.81015,0.05394
3447.75056,0.05391
3445.69097,0.05388
3443.63138,0.05422
3441.57180,0.05437
3439.51221,0.05424
3437.45262,0.05443
3435.39303,0.05501
3433.33344,0.05572
3431.27385,0.05633
3429.21427,0.05679
3427.15468,0.05728
3425.09509,0.05748
3423.03550,0.05718
3420.97591,0.05709
3418.91633,0.05781
3416.85674,0.05891
3414.79715,0.05990
3412.73756,0.06082
3410.67797,0.06139
3408.61839,0.06134
3406.55880,0.06120
3404.49921,0.06122
3402.43962,0.06139
3400.38003,0.06204
3398.32044,0.06295
3396.26086,0.06360
3394.20127,0.06406
3392.14168,0.06454
3390.08209,0.06497
3388.02250,0.06526
3385.96292,0.06577
3383.90333,0.06660
3381.84374,0.06751
3379.78415,0.06834
3377.72456,0.06899
3375.66497,0.06948
3373.60539,0.06980
3371.54580,0.07006
3369.48621,0.07052
3367.42662,0.07125
3365.36703,0.07220
3363.30745,0.07323
3361.24786,0.07421
3359.18827,0.07509
3357.12868,0.07576
3355.06909,0.07640
3353.00951,0.07742
3350.94992,0.07855
3348.89033,0.07963
3346.83074,0.08082
3344.77115,0.08186
3342.71156,0.08262
3340.65198,0.08359
3338.59239,0.08479
3336.53280,0.08571
3334.47321,0.08664
3332.41362,0.08788
3330.35404,0.08897
3328.29445,0.08987
3326.23486,0.09114
3324.17527,0.09275
3322.11568,0.09413
3320.05609,0.09535
3317.99651,0.09680
3315.93692,0.09819
3313.87733,0.09908
3311.81774,0.09980
3309.75815,0.10090
3307.69857,0.10251
3305.63898,0.10424
3303.57939,0.10551
3301.51980,0.10630
3299.46021,0.10695
3297.40063,0.10770
3295.34104,0.10839
3293.28145,0.10894
3291.22186,0.10968
3289.16227,0.11040
3287.10268,0.11067
3285.04310,0.11049
3282.98351,0.11018
3280.92392,0.10995
3278.86433,0.10936
3276.80474,0.10852
3274.74516,0.10829
3272.68557,0.10832
3270.62598,0.10741
3268.56639,0.10555
3266.50680,0.10353
3264.44721,0.10176
3262.38763,0.10029
3260.32804,0.09886
3258.26845,0.09743
3256.20886,0.09592
3254.14927,0.09410
3252.08969,0.09238
3250.03010,0.09104
3247.97051,0.08978
3245.91092,0.08850
3243.85133,0.08713
3241.79175,0.08566
3239.73216,0.08445
3237.67257,0.08334
3235.61298,0.08213
3233.55339,0.08131
3231.49380,0.08050
3229.43422,0.07913
3227.37463,0.07795
3225.31504,0.07743
3223.25545,0.07681
3221.19586,0.07564
3219.13628,0.07432
3217.07669,0.07343
3215.01710,0.07311
3212.95751,0.07293
3210.89792,0.07232
3208.83833,0.07146
3206.77875,0.07095
3204.71916,0.07059
3202.65957,0.06982
3200.59998,0.06874
3198.54039,0.06784
3196.48081,0.06704
3194.42122,0.06639
3192.36163,0.06586
3190.30204,0.06533
3188.24245,0.06496
3186.18287,0.06454
3184.12328,0.06363
3182.06369,0.06237
3180.00410,0.06142
3177.94451,0.06070
3175.88492,0.05980
3173.82534,0.05914
3171.76575,0.05890
3169.70616,0.05846
3167.64657,0.05788
3165.58698,0.05743
3163.52740,0.05676
3161.46781,0.05609
3159.40822,0.05573
3157.34863,0.05529
3155.28904,0.05452
3153.22945,0.05365
3151.16987,0.05299
3149.11028,0.05263
3147.05069,0.05217
3144.99110,0.05144
3142.93151,0.05073
3140.87193,0.05007
3138.81234,0.04975
3136.75275,0.04973
3134.69316,0.04937
3132.63357,0.04876
3130.57399,0.04843
3128.51440,0.04830
3126.45481,0.04808
3124.39522,0.04799
3122.33563,0.04797
3120.27604,0.04766
3118.21646,0.04718
3116.15687,0.04687
3114.09728,0.04704
3112.03769,0.04732
3109.97810,0.04706
3107.91852,0.04650
3105.85893,0.04633
3103.79934,0.04654
3101.73975,0.04687
3099.68016,0.04721
3097.62057,0.04716
3095.56099,0.04661
3093.50140,0.04662
3091.44181,0.04743
3089.38222,0.04792
3087.32263,0.04820
3085.26305,0.04866
3083.20346,0.04858
3081.14387,0.04809
3079.08428,0.04798
3077.02469,0.04805
3074.96511,0.04794
3072.90552,0.04779
3070.84593,0.04759
3068.78634,0.04746
3066.72675,0.04755
3064.66716,0.04772
3062.60758,0.04801
3060.54799,0.04818
3058.48840,0.04759
3056.42881,0.04669
3054.36922,0.04649
3052.30964,0.04644
3050.25005,0.04587
3048.19046,0.04528
3046.13087,0.04495
3044.07128,0.04457
3042.01169,0.04399
3039.95211,0.04350
3037.89252,0.04328
3035.83293,0.04317
3033.77334,0.04292
3031.71375,0.04236
3029.65417,0.04164
3027.59458,0.04121
3025.53499,0.04095
3023.47540,0.04045
3021.41581,0.03991
3019.35623,0.03959
3017.29664,0.03959
3015.23705,0.03966
3013.17746,0.03937
3011.11787,0.03894
3009.05828,0.03860
3006.99870,0.03825
3004.93911,0.03809
3002.87952,0.03821
3000.81993,0.03840
2998.76034,0.03851
2996.70076,0.03866
2994.64117,0.03911
2992.58158,0.03963
2990.52199,0.04001
2988.46240,0.04071
2986.40281,0.04169
2984.34323,0.04259
2982.28364,0.04336
2980.22405,0.04399
2978.16446,0.04458
2976.10487,0.04525
2974.04529,0.04578
2971.98570,0.04618
2969.92611,0.04665
2967.86652,0.04697
2965.80693,0.04704
2963.74735,0.04692
2961.68776,0.04649
2959.62817,0.04564
2957.56858,0.04462
2955.50899,0.04377
2953.44940,0.04332
2951.38982,0.04330
2949.33023,0.04355
2947.27064,0.04390
2945.21105,0.04420
2943.15146,0.04449
2941.09188,0.04478
2939.03229,0.04515
2936.97270,0.04540
2934.91311,0.04506
2932.85352,0.04420
2930.79393,0.04288
2928.73435,0.04095
2926.67476,0.03832
2924.61517,0.03444
2922.55558,0.02911
2920.49599,0.02276
2918.43641,0.01648
2916.37682,0.01321
2914.31723,0.01561
2912.25764,0.02176
2910.19805,0.02746
2908.13847,0.03098
2906.07888,0.03285
2904.01929,0.03387
2901.95970,0.03438
2899.90011,0.03443
2897.84052,0.03439
2895.78094,0.03447
2893.72135,0.03453
2891.66176,0.03463
2889.60217,0.03504
2887.54258,0.03572
2885.48300,0.03630
2883.42341,0.03671
2881.36382,0.03714
2879.30423,0.03761
2877.24464,0.03788
2875.18505,0.03771
2873.12547,0.03726
2871.06588,0.03684
2869.00629,0.03636
2866.94670,0.03553
2864.88711,0.03450
2862.82753,0.03348
2860.76794,0.03250
2858.70835,0.03146
2856.64876,0.03006
2854.58917,0.02749
2852.52959,0.02263
2850.47000,0.01681
2848.41041,0.01447
2846.35082,0.01764
2844.29123,0.02308
2842.23164,0.02713
2840.17206,0.02897
2838.11247,0.02952
2836.05288,0.02973
2833.99329,0.02992
2831.93370,0.03024
2829.87412,0.03042
2827.81453,0.03017
2825.75494,0.03011
2823.69535,0.03039
2821.63576,0.03048
2819.57617,0.03043
2817.51659,0.03028
2815.45700,0.02985
2813.39741,0.02937
2811.33782,0.02904
2809.27823,0.02888
2807.21865,0.02901
2805.15906,0.02918
2803.09947,0.02910
2801.03988,0.02909
2798.98029,0.02920
2796.92071,0.02913
2794.86112,0.02884
2792.80153,0.02853
2790.74194,0.02840
2788.68235,0.02834
2786.62276,0.02824
2784.56318,0.02820
2782.50359,0.02809
2780.44400,0.02772
2778.38441,0.02744
2776.32482,0.02744
2774.26524,0.02742
2772.20565,0.02723
2770.14606,0.02718
2768.08647,0.02725
2766.02688,0.02708
2763.96729,0.02693
2761.90771,0.02695
2759.84812,0.02695
2757.78853,0.02685
2755.72894,0.02662
2753.66935,0.02635
2751.60977,0.02614
2749.55018,0.02596
2747.49059,0.02590
2745.43100,0.02599
2743.37141,0.02598
2741.31183,0.02583
2739.25224,0.02565
2737.19265,0.02554
2735.13306,0.02549
2733.07347,0.02535
2731.01388,0.02523
2728.95430,0.02543
2726.89471,0.02565
2724.83512,0.02546
2722.77553,0.02506
2720.71594,0.02485
2718.65636,0.02481
2716.59677,0.02461
2714.53718,0.02415
2712.47759,0.02367
2710.41800,0.02363
2708.35841,0.02390
2706.29883,0.02401
2704.23924,0.02396
2702.17965,0.02400
2700.12006,0.02413
2698.06047,0.02413
2696.00089,0.02395
2693.94130,0.02373
2691.88171,0.02351
2689.82212,0.02332
2687.76253,0.02315
2685.70295,0.02303
2683.64336,0.02308
2681.58377,0.02321
2679.52418,0.02314
2677.46459,0.02283
2675.40500,0.02272
2673.34542,0.02298
2671.28583,0.02314
2669.22624,0.02297
2667.16665,0.02271
2665.10706,0.02259
2663.04748,0.02267
2660.98789,0.02272
2658.92830,0.02268
2656.86871,0.02280
2654.80912,0.02301
2652.74953,0.02306
2650.68995,0.02301
2648.63036,0.02305
2646.57077,0.02303
2644.51118,0.02268
2642.45159,0.02225
2640.39201,0.02220
2638.33242,0.02241
2636.27283,0.02245
2634.21324,0.02224
2632.15365,0.02215
2630.09407,0.02233
2628.03448,0.02241
2625.97489,0.02212
2623.91530,0.02160
2621.85571,0.02126
2619.79612,0.02124
2617.73654,0.02136
2615.67695,0.02143
2613.61736,0.02150
2611.55777,0.02152
2609.49818,0.02099
2607.43860,0.02029
2605.37901,0.02032
2603.31942,0.02089
2601.25983,0.02118
2599.20024,0.02096
2597.14065,0.02083
2595.08107,0.02114
2593.02148,0.02139
2590.96189,0.02113
2588.90230,0.02052
2586.84271,0.01998
2584.78313,0.01968
2582.72354,0.01944
2580.66395,0.01925
2578.60436,0.01932
2576.54477,0.01963
2574.48519,0.02009
2572.42560,0.02057
2570.36601,0.02100
2568.30642,0.02098
2566.24683,0.02031
2564.18724,0.01942
2562.12766,0.01883
2560.06807,0.01865
2558.00848,0.01855
2555.94889,0.01849
2553.88930,0.01875
2551.82972,0.01891
2549.77013,0.01891
2547.71054,0.01923
2545.65095,0.01951
2543.59136,0.01953
2541.53177,0.01951
2539.47219,0.01953
2537.41260,0.01946
2535.35301,0.01910
2533.29342,0.01864
2531.23383,0.01843
2529.17425,0.01827
2527.11466,0.01789
2525.05507,0.01781
2522.99548,0.01842
2520.93589,0.01875
2518.87631,0.01826
2516.81672,0.01776
2514.75713,0.01776
2512.69754,0.01798
2510.63795,0.01802
2508.57836,0.01782
2506.51878,0.01760
2504.45919,0.01742
2502.39960,0.01752
2500.34001,0.01775
2498.28042,0.01763
2496.22084,0.01742
2494.16125,0.01755
2492.10166,0.01753
2490.04207,0.01717
2487.98248,0.01716
2485.92289,0.01753
2483.86331,0.01779
2481.80372,0.01770
2479.74413,0.01737
2477.68454,0.01720
2475.62495,0.01729
2473.56537,0.01737
2471.50578,0.01748
2469.44619,0.01755
2467.38660,0.01726
2465.32701,0.01669
2463.26743,0.01639
2461.20784,0.01675
2459.14825,0.01735
2457.08866,0.01767
2455.02907,0.01745
2452.96948,0.01675
2450.90990,0.01622
2448.85031,0.01636
2446.79072,0.01680
2444.73113,0.01715
2442.67154,0.01727
2440.61196,0.01710
2438.55237,0.01690
2436.49278,0.01671
2434.43319,0.01638
2432.37360,0.01616
2430.31401,0.01602
2428.25443,0.01565
2426.19484,0.01545
2424.13525,0.01582
2422.07566,0.01591
2420.01607,0.01540
2417.95649,0.01507
2415.89690,0.01519
2413.83731,0.01532
2411.77772,0.01540
2409.71813,0.01565
2407.65855,0.01586
2405.59896,0.01586
2403.53937,0.01583
2401.47978,0.01571
2399.42019,0.01556
2397.36060,0.01547
2395.30102,0.01518
2393.24143,0.01495
2391.18184,0.01486
2389.12225,0.01462
2387.06266,0.01453
2385.00308,0.01470
2382.94349,0.01493
2380.88390,0.01521
2378.82431,0.01557
2376.76472,0.01562
2374.70513,0.01565
2372.64555,0.01653
2370.58596,0.01759
2368.52637,0.01790
2366.46678,0.01788
2364.40719,0.01800
2362.34761,0.01832
2360.28802,0.01884
2358.22843,0.01897
2356.16884,0.01859
2354.10925,0.01846
2352.04967,0.01808
2349.99008,0.01725
2347.93049,0.01692
2345.87090,0.01740
2343.81131,0.01821
2341.75172,0.01859
2339.69214,0.01842
2337.63255,0.01809
2335.57296,0.01769
2333.51337,0.01735
2331.45378,0.01713
2329.39420,0.01719
2327.33461,0.01770
2325.27502,0.01804
2323.21543,0.01780
2321.15584,0.01748
2319.09625,0.01737
2317.03667,0.01695
2314.97708,0.01628
2312.91749,0.01596
2310.85790,0.01601
2308.79831,0.01608
2306.73873,0.01590
2304.67914,0.01551
2302.61955,0.01498
2300.55996,0.01457
2298.50037,0.01455
2296.44079,0.01465
2294.38120,0.01469
2292.32161,0.01472
2290.26202,0.01447
2288.20243,0.01414
2286.14284,0.01410
2284.08326,0.01423
2282.02367,0.01430
2279.96408,0.01416
2277.90449,0.01384
2275.84490,0.01363
2273.78532,0.01361
2271.72573,0.01352
2269.66614,0.01314
2267.60655,0.01295
2265.54696,0.01325
2263.48737,0.01331
2261.42779,0.01292
2259.36820,0.01272
2257.30861,0.01284
2255.24902,0.01281
2253.18943,0.01284
2251.12985,0.01314
2249.07026,0.01287
2247.01067,0.01206
2244.95108,0.01176
2242.89149,0.01209
2240.83191,0.01201
2238.77232,0.01144
2236.71273,0.01157
2234.65314,0.01195
2232.59355,0.01151
2230.53396,0.01113
2228.47438,0.01161
2226.41479,0.01222
2224.35520,0.01261
2222.29561,0.01305
2220.23602,0.01289
2218.17644,0.01209
2216.11685,0.01182
2214.05726,0.01208
2211.99767,0.01201
2209.93808,0.01144
2207.87849,0.01108
2205.81891,0.01144
2203.75932,0.01191
2201.69973,0.01248
2199.64014,0.01290
2197.58055,0.01212
2195.52097,0.01048
2193.46138,0.00938
2191.40179,0.00949
2189.34220,0.01004
2187.28261,0.01026
2185.22303,0.01000
2183.16344,0.00933
2181.10385,0.00914
2179.04426,0.01009
2176.98467,0.01125
2174.92508,0.01141
2172.86550,0.01069
2170.80591,0.01013
2168.74632,0.01004
2166.68673,0.00992
2164.62714,0.00978
2162.56756,0.01002
2160.50797,0.01018
2158.44838,0.00929
2156.38879,0.00834
2154.32920,0.00841
2152.26961,0.00890
2150.21003,0.00923
2148.15044,0.00932
2146.09085,0.00934
2144.03126,0.00925
2141.97167,0.00843
2139.91209,0.00717
2137.85250,0.00666
2135.79291,0.00758
2133.73332,0.00910
2131.67373,0.00979
2129.61415,0.00978
2127.55456,0.00979
2125.49497,0.00992
2123.43538,0.01018
2121.37579,0.01018
2119.31620,0.00964
2117.25662,0.00966
2115.19703,0.01060
2113.13744,0.01103
2111.07785,0.01065
2109.01826,0.01057
2106.95868,0.01102
2104.89909,0.01121
2102.83950,0.01117
2100.77991,0.01133
2098.72032,0.01134
2096.66073,0.01092
2094.60115,0.01035
2092.54156,0.00997
2090.48197,0.01015
2088.42238,0.01096
2086.36279,0.01168
2084.30321,0.01152
2082.24362,0.01077
2080.18403,0.01043
2078.12444,0.01081
2076.06485,0.01140
2074.00527,0.01148
2071.94568,0.01116
2069.88609,0.01090
2067.82650,0.01052
2065.76691,0.01030
2063.70732,0.01051
2061.64774,0.01057
2059.58815,0.01034
2057.52856,0.01025
2055.46897,0.01000
2053.40938,0.00997
2051.34980,0.01097
2049.29021,0.01148
2047.23062,0.01028
2045.17103,0.00894
2043.11144,0.00856
2041.05185,0.00848
2038.99227,0.00818
2036.93268,0.00832
2034.87309,0.00888
2032.81350,0.00927
2030.75391,0.00958
2028.69433,0.00938
2026.63474,0.00906
2024.57515,0.00915
2022.51556,0.00897
2020.45597,0.00874
2018.39639,0.00896
2016.33680,0.00950
2014.27721,0.01006
2012.21762,0.01037
2010.15803,0.01003
2008.09844,0.00865
2006.03886,0.00718
2003.97927,0.00707
2001.91968,0.00766
1999.86009,0.00773
1997.80050,0.00747
1995.74092,0.00765
1993.68133,0.00799
1991.62174,0.00763
1989.56215,0.00723
1987.50256,0.00773
1985.44297,0.00852
1983.38339,0.00896
1981.32380,0.00896
1979.26421,0.00869
1977.20462,0.00835
1975.14503,0.00807
1973.08545,0.00781
1971.02586,0.00753
1968.96627,0.00744
1966.90668,0.00746
1964.84709,0.00757
1962.78751,0.00748
1960.72792,0.00695
1958.66833,0.00702
1956.60874,0.00805
1954.54915,0.00864
1952.48956,0.00849
1950.42998,0.00825
1948.37039,0.00782
1946.31080,0.00749
1944.25121,0.00765
1942.19162,0.00803
1940.13204,0.00837
1938.07245,0.00829
1936.01286,0.00804
1933.95327,0.00808
1931.89368,0.00797
1929.83409,0.00741
1927.77451,0.00706
1925.71492,0.00723
1923.65533,0.00739
1921.59574,0.00744
1919.53615,0.00731
1917.47657,0.00708
1915.41698,0.00758
1913.35739,0.00848
1911.29780,0.00887
1909.23821,0.00862
1907.17863,0.00800
1905.11904,0.00753
1903.05945,0.00765
1900.99986,0.00814
1898.94027,0.00857
1896.88068,0.00876
1894.82110,0.00871
1892.76151,0.00838
1890.70192,0.00787
1888.64233,0.00771
1886.58274,0.00799
1884.52316,0.00794
1882.46357,0.00789
1880.40398,0.00836
1878.34439,0.00856
1876.28480,0.00831
1874.22521,0.00811
1872.16563,0.00779
1870.10604,0.00730
1868.04645,0.00726
1865.98686,0.00776
1863.92727,0.00816
1861.86769,0.00802
1859.80810,0.00769
1857.74851,0.00779
1855.68892,0.00803
1853.62933,0.00813
1851.56975,0.00826
1849.51016,0.00813
1847.45057,0.00761
1845.39098,0.00710
1843.33139,0.00706
1841.27180,0.00757
1839.21222,0.00790
1837.15263,0.00778
1835.09304,0.00765
1833.03345,0.00747
1830.97386,0.00706
1828.91428,0.00686
1826.85469,0.00705
1824.79510,0.00736
1822.73551,0.00780
1820.67592,0.00817
1818.61633,0.00815
1816.55675,0.00771
1814.49716,0.00747
1812.43757,0.00757
1810.37798,0.00768
1808.31839,0.00776
1806.25881,0.00775
1804.19922,0.00759
1802.13963,0.00734
1800.08004,0.00718
1798.02045,0.00724
1795.96087,0.00718
1793.90128,0.00672
1791.84169,0.00663
1789.78210,0.00740
1787.72251,0.00809
1785.66292,0.00828
1783.60334,0.00819
1781.54375,0.00792
1779.48416,0.00779
1777.42457,0.00796
1775.36498,0.00790
1773.30540,0.00749
1771.24581,0.00752
1769.18622,0.00824
1767.12663,0.00893
1765.06704,0.00922
1763.00745,0.00917
1760.94787,0.00919
1758.88828,0.00943
1756.82869,0.00974
1754.76910,0.01000
1752.70951,0.00990
1750.64993,0.00982
1748.59034,0.01026
1746.53075,0.01096
1744.47116,0.01169
1742.41157,0.01239
1740.35199,0.01295
1738.29240,0.01341
1736.23281,0.01355
1734.17322,0.01344
1732.11363,0.01397
1730.05404,0.01488
1727.99446,0.01570
1725.93487,0.01629
1723.87528,0.01670
1721.81569,0.01689
1719.75610,0.01658
1717.69652,0.01626
1715.63693,0.01722
1713.57734,0.01898
1711.51775,0.02060
1709.45816,0.02200
1707.39857,0.02354
1705.33899,0.02598
1703.27940,0.02886
1701.21981,0.03249
1699.16022,0.03765
1697.10063,0.04234
1695.04105,0.04672
1692.98146,0.05064
1690.92187,0.05392
1688.86228,0.05734
1686.80269,0.06035
1684.74311,0.06405
1682.68352,0.06976
1680.62393,0.07515
1678.56434,0.07971
1676.50475,0.08443
1674.44516,0.09020
1672.38558,0.09588
1670.32599,0.10184
1668.26640,0.10938
1666.20681,0.11633
1664.14722,0.12266
1662.08764,0.12977
1660.02805,0.13635
1657.96846,0.14100
1655.90887,0.14358
1653.84928,0.14454
1651.78969,0.14494
1649.73011,0.14466
1647.67052,0.14316
1645.61093,0.14141
1643.55134,0.14034
1641.49175,0.13912
1639.43217,0.13734
1637.37258,0.13503
1635.31299,0.13279
1633.25340,0.13161
1631.19381,0.13046
1629.13423,0.12843
1627.07464,0.12578
1625.01505,0.12250
1622.95546,0.11810
1620.89587,0.11309
1618.83628,0.10736
1616.77670,0.09958
1614.71711,0.09176
1612.65752,0.08520
1610.59793,0.07839
1608.53834,0.07164
1606.47876,0.06585
1604.41917,0.06097
1602.35958,0.05671
1600.29999,0.05313
1598.24040,0.05018
1596.18081,0.04762
1594.12123,0.04543
1592.06164,0.04360
1590.00205,0.04197
1587.94246,0.04060
1585.88287,0.03953
1583.82329,0.03872
1581.76370,0.03814
1579.70411,0.03760
1577.64452,0.03740
1575.58493,0.03871
1573.52535,0.04113
1571.46576,0.04339
1569.40617,0.04637
1567.34658,0.05009
1565.28699,0.05381
1563.22740,0.05723
1561.16782,0.06012
1559.10823,0.06483
1557.04864,0.07194
1554.98905,0.07784
1552.92946,0.08310
1550.86988,0.08784
1548.81029,0.09193
1546.75070,0.09481
1544.69111,0.09636
1542.63152,0.09722
1540.57193,0.09837
1538.51235,0.10075
1536.45276,0.10278
1534.39317,0.10389
1532.33358,0.10499
1530.27399,0.10597
1528.21441,0.10615
1526.15482,0.10570
1524.09523,0.10504
1522.03564,0.10415
1519.97605,0.10326
1517.91647,0.10216
1515.85688,0.10033
1513.79729,0.09766
1511.73770,0.09399
1509.67811,0.08954
1507.61852,0.08394
1505.55894,0.07834
1503.49935,0.07487
1501.43976,0.07153
1499.38017,0.06727
1497.32058,0.06249
1495.26100,0.05828
1493.20141,0.05491
1491.14182,0.05125
1489.08223,0.04746
1487.02264,0.04490
1484.96305,0.04313
1482.90347,0.04157
1480.84388,0.04032
1478.78429,0.03948
1476.72470,0.03883
1474.66511,0.03844
1472.60553,0.03898
1470.54594,0.04052
1468.48635,0.04179
1466.42676,0.04227
1464.36717,0.04259
1462.30759,0.04341
1460.24800,0.04418
1458.18841,0.04468
1456.12882,0.04584
1454.06923,0.04711
1452.00964,0.04752
1449.95006,0.04718
1447.89047,0.04642
1445.83088,0.04554
1443.77129,0.04463
1441.71170,0.04359
1439.65212,0.04235
1437.59253,0.04084
1435.53294,0.03962
1433.47335,0.03899
1431.41376,0.03844
1429.35417,0.03798
1427.29459,0.03782
1425.23500,0.03782
1423.17541,0.03797
1421.11582,0.03807
1419.05623,0.03819
1416.99665,0.03883
1414.93706,0.03954
1412.87747,0.03991
1410.81788,0.04011
1408.75829,0.04020
1406.69871,0.04004
1404.63912,0.03981
1402.57953,0.03963
1400.51994,0.03934
1398.46035,0.03905
1396.40076,0.03896
1394.34118,0.03910
1392.28159,0.03955
1390.22200,0.03995
1388.16241,0.04007
1386.10282,0.04019
1384.04324,0.04031
1381.98365,0.04016
1379.92406,0.03978
1377.86447,0.03927
1375.80488,0.03864
1373.74529,0.03812
1371.68571,0.03786
1369.62612,0.03753
1367.56653,0.03688
1365.50694,0.03597
1363.44735,0.03500
1361.38777,0.03434
1359.32818,0.03403
1357.26859,0.03377
1355.20900,0.03354
1353.14941,0.03349
1351.08983,0.03353
1349.03024,0.03355
1346.97065,0.03374
1344.91106,0.03410
1342.85147,0.03431
1340.79188,0.03432
1338.73230,0.03448
1336.67271,0.03490
1334.61312,0.03532
1332.55353,0.03559
1330.49394,0.03570
1328.43436,0.03564
1326.37477,0.03552
1324.31518,0.03546
1322.25559,0.03550
1320.19600,0.03563
1318.13641,0.03595
1316.07683,0.03643
1314.01724,0.03683
1311.95765,0.03712
1309.89806,0.03737
1307.83847,0.03754
1305.77889,0.03763
1303.71930,0.03767
1301.65971,0.03765
1299.60012,0.03755
1297.54053,0.03742
1295.48095,0.03724
1293.42136,0.03696
1291.36177,0.03672
1289.30218,0.03666
1287.24259,0.03677
1285.18300,0.03688
1283.12342,0.03690
1281.06383,0.03693
1279.00424,0.03702
1276.94465,0.03716
1274.88506,0.03735
1272.82548,0.03766
1270.76589,0.03808
1268.70630,0.03863
1266.64671,0.03929
1264.58712,0.03992
1262.52753,0.04035
1260.46795,0.04053
1258.40836,0.04048
1256.34877,0.04037
1254.28918,0.04036
1252.22959,0.04052
1250.17001,0.04078
1248.11042,0.04102
1246.05083,0.04117
1243.99124,0.04129
1241.93165,0.04138
1239.87207,0.04141
1237.81248,0.04140
1235.75289,0.04135
1233.69330,0.04123
1231.63371,0.04102
1229.57412,0.04070
1227.51454,0.04028
1225.45495,0.03974
1223.39536,0.03904
1221.33577,0.03827
1219.27618,0.03754
1217.21660,0.03678
1215.15701,0.03589
1213.09742,0.03494
1211.03783,0.03401
1208.97824,0.03318
1206.91865,0.03242
1204.85907,0.03168
1202.79948,0.03099
1200.73989,0.03036
1198.68030,0.02977
1196.62071,0.02925
1194.56113,0.02876
1192.50154,0.02832
1190.44195,0.02800
1188.38236,0.02783
1186.32277,0.02782
1184.26319,0.02797
1182.20360,0.02816
1180.14401,0.02844
1178.08442,0.02896
1176.02483,0.02967
1173.96524,0.03028
1171.90566,0.03071
1169.84607,0.03113
1167.78648,0.03146
1165.72689,0.03153
1163.66730,0.03136
1161.60772,0.03106
1159.54813,0.03075
1157.48854,0.03042
1155.42895,0.02995
1153.36936,0.02932
1151.30977,0.02870
1149.25019,0.02821
1147.19060,0.02781
1145.13101,0.02744
1143.07142,0.02713
1141.01183,0.02696
1138.95225,0.02688
1136.89266,0.02682
1134.83307,0.02678
1132.77348,0.02683
1130.71389,0.02693
1128.65431,0.02701
1126.59472,0.02712
1124.53513,0.02722
1122.47554,0.02727
1120.41595,0.02740
1118.35636,0.02764
1116.29678,0.02792
1114.23719,0.02808
1112.17760,0.02813
1110.11801,0.02835
1108.05842,0.02874
1105.99884,0.02906
1103.93925,0.02925
1101.87966,0.02933
1099.82007,0.02932
1097.76048,0.02935
1095.70089,0.02955
1093.64131,0.02988
1091.58172,0.03025
1089.52213,0.03074
1087.46254,0.03133
1085.40295,0.03196
1083.34337,0.03270
1081.28378,0.03355
1079.22419,0.03431
1077.16460,0.03482
1075.10501,0.03511
1073.04543,0.03528
1070.98584,0.03526
1068.92625,0.03504
1066.86666,0.03481
1064.80707,0.03469
1062.74748,0.03463
1060.68790,0.03458
1058.62831,0.03447
1056.56872,0.03416
1054.50913,0.03376
1052.44954,0.03341
1050.38996,0.03304
1048.33037,0.03265
1046.27078,0.03225
1044.21119,0.03182
1042.15160,0.03139
1040.09201,0.03093
1038.03243,0.03036
1035.97284,0.02977
1033.91325,0.02926
1031.85366,0.02879
1029.79407,0.02836
1027.73449,0.02794
1025.67490,0.02754
1023.61531,0.02711
1021.55572,0.02660
1019.49613,0.02606
1017.43655,0.02560
1015.37696,0.02520
1013.31737,0.02475
1011.25778,0.02418
1009.19819,0.02345
1007.13860,0.02264
1005.07902,0.02200
1003.01943,0.02161
1000.95984,0.02125
998.90025,0.02081
996.84066,0.02042
994.78108,0.02006
992.72149,0.01974
990.66190,0.01947
988.60231,0.01919
986.54272,0.01897
984.48313,0.01879
982.42355,0.01861
980.36396,0.01852
978.30437,0.01844
976.24478,0.01832
974.18519,0.01823
972.12561,0.01811
970.06602,0.01792
968.00643,0.01776
965.94684,0.01776
963.88725,0.01781
961.82767,0.01778
959.76808,0.01762
957.70849,0.01739
955.64890,0.01724
953.58931,0.01710
951.52972,0.01689
949.47014,0.01676
947.41055,0.01673
945.35096,0.01671
943.29137,0.01673
941.23178,0.01686
939.17220,0.01702
937.11261,0.01714
935.05302,0.01718
932.99343,0.01710
930.93384,0.01694
928.87425,0.01677
926.81467,0.01662
924.75508,0.01645
922.69549,0.01629
920.63590,0.01613
918.57631,0.01585
916.51673,0.01555
914.45714,0.01543
912.39755,0.01549
910.33796,0.01560
908.27837,0.01558
906.21879,0.01548
904.15920,0.01549
902.09961,0.01557
900.04002,0.01550
897.98043,0.01532
895.92084,0.01519
893.86126,0.01510
891.80167,0.01496
889.74208,0.01482
887.68249,0.01478
885.62290,0.01483
883.56332,0.01474
881.50373,0.01453
879.44414,0.01436
877.38455,0.01428
875.32496,0.01431
873.26537,0.01436
871.20579,0.01429
869.14620,0.01408
867.08661,0.01388
865.02702,0.01381
862.96743,0.01375
860.90785,0.01373
858.84826,0.01386
856.78867,0.01402
854.72908,0.01405
852.66949,0.01398
850.60991,0.01399
848.55032,0.01414
846.49073,0.01417
844.43114,0.01404
842.37155,0.01399
840.31196,0.01402
838.25238,0.01409
836.19279,0.01429
834.13320,0.01465
832.07361,0.01501
830.01402,0.01523
827.95444,0.01544
825.89485,0.01569
823.83526,0.01581
821.77567,0.01580
819.71608,0.01581
817.65649,0.01593
815.59691,0.01620
813.53732,0.01655
811.47773,0.01682
809.41814,0.01704
807.35855,0.01732
805.29897,0.01757
803.23938,0.01772
801.17979,0.01787
799.12020,0.01803
797.06061,0.01818
795.00103,0.01821
792.94144,0.01812
790.88185,0.01808
788.82226,0.01818
786.76267,0.01832
784.70308,0.01844
782.64350,0.01852
780.58391,0.01865
778.52432,0.01888
776.46473,0.01907
774.40514,0.01917
772.34556,0.01930
770.28597,0.01943
768.22638,0.01952
766.16679,0.01961
764.10720,0.01973
762.04761,0.01987
759.98803,0.02003
757.92844,0.02015
755.86885,0.02028
753.80926,0.02047
751.74967,0.02068
749.69009,0.02083
747.63050,0.02094
745.57091,0.02102
743.51132,0.02105
741.45173,0.02118
739.39215,0.02137
737.33256,0.02143
735.27297,0.02151
733.21338,0.02180
731.15379,0.02221
729.09420,0.02265
727.03462,0.02315
724.97503,0.02356
722.91544,0.02391
720.85585,0.02434
718.79626,0.02493
716.73668,0.02566
714.67709,0.02629
712.61750,0.02682
710.55791,0.02750
708.49832,0.02831
706.43873,0.02900
704.37915,0.02949
702.31956,0.02987
700.25997,0.03003
698.20038,0.02999
696.14079,0.02988
694.08121,0.02980
692.02162,0.02991
689.96203,0.03009
687.90244,0.03014
685.84285,0.03022
683.78327,0.03035
681.72368,0.03047
679.66409,0.03063
677.60450,0.03085
675.54491,0.03113
673.48532,0.03135
671.42574,0.03141
669.36615,0.03138
667.30656,0.03142
665.24697,0.03152
663.18738,0.03161
661.12780,0.03168
659.06821,0.03173
657.00862,0.03180
654.94903,0.03185
652.88944,0.03190
650.82985,0.03200
648.77027,0.03207
646.71068,0.03204
644.65109,0.03200
642.59150,0.03208
640.53191,0.03229
638.47233,0.03251
636.41274,0.03265
634.35315,0.03263
632.29356,0.03260
630.23397,0.03278
628.17439,0.03299
626.11480,0.03302
624.05521,0.03304
621.99562,0.03308
619.93603,0.03299
617.87644,0.03283
615.81686,0.03273
613.75727,0.03263
611.69768,0.03249
609.63809,0.03222
607.57850,0.03191
605.51892,0.03187
603.45933,0.03189
601.39974,0.03179
599.34015,0.03177
597.28056,0.03175
595.22097,0.03159
593.16139,0.03155
591.10180,0.03169
589.04221,0.03164
586.98262,0.03132
584.92303,0.03106
582.86345,0.03113
580.80386,0.03140
578.74427,0.03158
576.68468,0.03159
574.62509,0.03154
572.56551,0.03139
570.50592,0.03122
568.44633,0.03126
566.38674,0.03126
564.32715,0.03106
562.26756,0.03092
560.20798,0.03097
558.14839,0.03108
556.08880,0.03113
554.02921,0.03122
551.96962,0.03140
549.91004,0.03154
547.85045,0.03137
545.79086,0.03104
543.73127,0.03084
541.67168,0.03075
539.61209,0.03078
537.55251,0.03076
535.49292,0.03055
533.43333,0.03032
531.37374,0.03028
529.31415,0.03040
527.25457,0.03051
525.19498,0.03055
523.13539,0.03044
521.07580,0.03022
519.01621,0.02997
516.95663,0.02970
514.89704,0.02958
512.83745,0.02952
510.77786,0.02920
508.71827,0.02861
506.65868,0.02803
504.59910,0.02762
502.53951,0.02731
500.47992,0.02724
498.42033,0.02731
496.36074,0.02723
494.30116,0.02707
492.24157,0.02697
490.18198,0.02683
488.12239,0.02653
486.06280,0.02609
484.00321,0.02582
481.94363,0.02593
479.88404,0.02601
477.82445,0.02587
475.76486,0.02564
473.70527,0.02552
471.64569,0.02564
469.58610,0.02590
467.52651,0.02595
465.46692,0.02567
463.40733,0.02543
461.34775,0.02524
459.28816,0.02481
457.22857,0.02455
455.16898,0.02463
453.10939,0.02452
451.04980,0.02421
448.99022,0.02400
446.93063,0.02394
444.87104,0.02389
442.81145,0.02373
440.75186,0.02344
438.69228,0.02304
436.63269,0.02275
434.57310,0.02270
432.51351,0.02248
430.45392,0.02208
428.39433,0.02187
426.33475,0.02183
424.27516,0.02198
422.21557,0.02242
420.15598,0.02254
418.09639,0.02173
416.03681,0.02098
413.97722,0.02084
411.91763,0.02091
409.85804,0.02095
407.79845,0.02080
405.73887,0.02045
403.67928,0.02009
401.61969,0.01981
399.56010,0.01915
