3997.65486	0.05247
3995.59527	0.05261
3993.53569	0.05287
3991.47610	0.05305
3989.41652	0.05271
3987.35693	0.05235
3985.29735	0.05260
3983.23776	0.05284
3981.17817	0.05238
3979.11859	0.05168
3977.05900	0.05191
3974.99942	0.05258
3972.93983	0.05264
3970.88025	0.05213
3968.82066	0.05148
3966.76108	0.05114
3964.70149	0.05148
3962.64191	0.05199
3960.58232	0.05196
3958.52274	0.05210
3956.46315	0.05238
3954.40357	0.05203
3952.34398	0.05162
3950.28440	0.05170
3948.22481	0.05144
3946.16523	0.05087
3944.10564	0.05173
3942.04606	0.05254
3939.98647	0.05202
3937.92689	0.05161
3935.86730	0.05170
3933.80772	0.05259
3931.74813	0.05277
3929.68855	0.05151
3927.62896	0.05098
3925.56937	0.05171
3923.50979	0.05145
3921.45020	0.05071
3919.39062	0.05106
3917.33103	0.05162
3915.27145	0.05131
3913.21186	0.05120
3911.15228	0.05144
3909.09269	0.05082
3907.03311	0.05046
3904.97352	0.05119
3902.91394	0.05149
3900.85435	0.05162
3898.79477	0.05074
3896.73518	0.04852
3894.67560	0.04857
3892.61601	0.05092
3890.55643	0.05056
3888.49684	0.04903
3886.43726	0.05077
3884.37767	0.05096
3882.31809	0.05121
3880.25850	0.05222
3878.19892	0.04997
3876.13933	0.04950
3874.07974	0.05062
3872.02016	0.05097
3869.96057	0.05062
3867.90099	0.04760
3865.84140	0.04792
3863.78182	0.05002
3861.72223	0.04942
3859.66265	0.04729
3857.60306	0.04656
3855.54348	0.05103
3853.48389	0.05495
3851.42431	0.05056
3849.36472	0.04722
3847.30514	0.04799
3845.24555	0.04950
3843.18597	0.04969
3841.12638	0.04974
3839.06680	0.05116
3837.00721	0.05040
3834.94763	0.04844
3832.88804	0.04918
3830.82846	0.04985
3828.76887	0.04936
3826.70929	0.04858
3824.64970	0.04764
3822.59012	0.04989
3820.53053	0.04976
3818.47094	0.04751
3816.41136	0.04983
3814.35177	0.04970
3812.29219	0.04784
3810.23260	0.04873
3808.17302	0.05123
3806.11343	0.04986
3804.05385	0.04773
3801.99426	0.05030
3799.93468	0.04999
3797.87509	0.04935
3795.81551	0.05006
3793.75592	0.04933
3791.69634	0.04911
3789.63675	0.04910
3787.57717	0.04907
3785.51758	0.04924
3783.45800	0.04875
3781.39841	0.04908
3779.33883	0.04999
3777.27924	0.04912
3775.21966	0.04810
3773.16007	0.04821
3771.10049	0.04960
3769.04090	0.04965
3766.98132	0.04865
3764.92173	0.04771
3762.86214	0.04674
3760.80256	0.04819
3758.74297	0.04892
3756.68339	0.04699
3754.62380	0.04681
3752.56422	0.04990
3750.50463	0.05014
3748.44505	0.04564
3746.38546	0.04658
3744.32588	0.05045
3742.26629	0.04660
3740.20671	0.04395
3738.14712	0.04611
3736.08754	0.04861
3734.02795	0.04851
3731.96837	0.04727
3729.90878	0.04559
3727.84920	0.04565
3725.78961	0.04611
3723.73003	0.04590
3721.67044	0.04614
3719.61086	0.04592
3717.55127	0.04504
3715.49169	0.04543
3713.43210	0.04895
3711.37251	0.05140
3709.31293	0.04926
3707.25334	0.04631
3705.19376	0.04581
3703.13417	0.04744
3701.07459	0.04769
3699.01500	0.04668
3696.95542	0.04693
3694.89583	0.04687
3692.83625	0.04724
3690.77666	0.04940
3688.71708	0.05013
3686.65749	0.04727
3684.59791	0.04565
3682.53832	0.04621
3680.47874	0.04650
3678.41915	0.04782
3676.35957	0.05073
3674.29998	0.04818
3672.24040	0.04658
3670.18081	0.05038
3668.12123	0.04981
3666.06164	0.04748
3664.00206	0.04738
3661.94247	0.04756
3659.88289	0.04753
3657.82330	0.04847
3655.76371	0.04765
3653.70413	0.04544
3651.64454	0.04792
3649.58496	0.05116
3647.52537	0.04972
3645.46579	0.04730
3643.40620	0.04766
3641.34662	0.04901
3639.28703	0.04915
3637.22745	0.04852
3635.16786	0.04753
3633.10828	0.04626
3631.04869	0.04814
3628.98911	0.05158
3626.92952	0.04880
3624.86994	0.04541
3622.81035	0.04596
3620.75077	0.04881
3618.69118	0.04986
3616.63160	0.04834
3614.57201	0.04841
3612.51243	0.04897
3610.45284	0.04901
3608.39326	0.04962
3606.33367	0.04925
3604.27408	0.04918
3602.21450	0.05037
3600.15491	0.05103
3598.09533	0.05090
3596.03574	0.05116
3593.97616	0.05066
3591.91657	0.04935
3589.85699	0.05033
3587.79740	0.05280
3585.73782	0.05244
3583.67823	0.05128
3581.61865	0.05161
3579.55906	0.05235
3577.49948	0.05313
3575.43989	0.05376
3573.38031	0.05340
3571.32072	0.05285
3569.26114	0.05423
3567.20155	0.05583
3565.14197	0.05461
3563.08238	0.05331
3561.02280	0.05397
3558.96321	0.05491
3556.90363	0.05503
3554.84404	0.05515
3552.78446	0.05558
3550.72487	0.05519
3548.66528	0.05514
3546.60570	0.05625
3544.54611	0.05671
3542.48653	0.05639
3540.42694	0.05656
3538.36736	0.05740
3536.30777	0.05776
3534.24819	0.05706
3532.18860	0.05684
3530.12902	0.05792
3528.06943	0.05925
3526.00985	0.05984
3523.95026	0.05988
3521.89068	0.05951
3519.83109	0.05949
3517.77151	0.06022
3515.71192	0.06082
3513.65234	0.06103
3511.59275	0.06134
3509.53317	0.06157
3507.47358	0.06147
3505.41400	0.06238
3503.35441	0.06361
3501.29483	0.06349
3499.23524	0.06312
3497.17565	0.06297
3495.11607	0.06272
3493.05648	0.06298
3490.99690	0.06366
3488.93731	0.06426
3486.87773	0.06449
3484.81814	0.06472
3482.75856	0.06560
3480.69897	0.06623
3478.63939	0.06618
3476.57980	0.06596
3474.52022	0.06560
3472.46063	0.06521
3470.40105	0.06503
3468.34146	0.06518
3466.28188	0.06533
3464.22229	0.06571
3462.16271	0.06652
3460.10312	0.06704
3458.04354	0.06709
3455.98395	0.06670
3453.92437	0.06639
3451.86478	0.06678
3449.80520	0.06764
3447.74561	0.06832
3445.68603	0.06797
3443.62644	0.06746
3441.56685	0.06753
3439.50727	0.06766
3437.44768	0.06752
3435.38810	0.06710
3433.32851	0.06710
3431.26893	0.06748
3429.20934	0.06754
3427.14976	0.06752
3425.09017	0.06783
3423.03059	0.06812
3420.97100	0.06796
3418.91142	0.06814
3416.85183	0.06906
3414.79225	0.06944
3412.73266	0.06910
3410.67308	0.06910
3408.61349	0.06935
3406.55391	0.06921
3404.49432	0.06870
3402.43474	0.06838
3400.37515	0.06876
3398.31557	0.06937
3396.25598	0.06955
3394.19640	0.06967
3392.13681	0.06992
3390.07723	0.07019
3388.01764	0.07086
3385.95805	0.07173
3383.89847	0.07222
3381.83888	0.07251
3379.77930	0.07318
3377.71971	0.07405
3375.66013	0.07482
3373.60054	0.07543
3371.54096	0.07597
3369.48137	0.07656
3367.42179	0.07716
3365.36220	0.07775
3363.30262	0.07855
3361.24303	0.07967
3359.18345	0.08112
3357.12386	0.08282
3355.06428	0.08427
3353.00469	0.08577
3350.94511	0.08768
3348.88552	0.08975
3346.82594	0.09198
3344.76635	0.09456
3342.70677	0.09752
3340.64718	0.10084
3338.58760	0.10438
3336.52801	0.10810
3334.46842	0.11203
3332.40884	0.11620
3330.34925	0.12067
3328.28967	0.12562
3326.23008	0.13143
3324.17050	0.13806
3322.11091	0.14522
3320.05133	0.15320
3317.99174	0.16202
3315.93216	0.17115
3313.87257	0.18062
3311.81299	0.19098
3309.75340	0.20158
3307.69382	0.21116
3305.63423	0.21981
3303.57465	0.22771
3301.51506	0.23422
3299.45548	0.23897
3297.39589	0.24203
3295.33631	0.24370
3293.27672	0.24394
3291.21714	0.24262
3289.15755	0.24002
3287.09797	0.23659
3285.03838	0.23281
3282.97880	0.22868
3280.91921	0.22395
3278.85962	0.21900
3276.80004	0.21426
3274.74045	0.20971
3272.68087	0.20513
3270.62128	0.20061
3268.56170	0.19618
3266.50211	0.19168
3264.44253	0.18745
3262.38294	0.18378
3260.32336	0.18031
3258.26377	0.17623
3256.20419	0.17128
3254.14460	0.16635
3252.08502	0.16211
3250.02543	0.15844
3247.96585	0.15488
3245.90626	0.15101
3243.84668	0.14679
3241.78709	0.14282
3239.72751	0.13932
3237.66792	0.13612
3235.60834	0.13351
3233.54875	0.13133
3231.48917	0.12906
3229.42958	0.12665
3227.36999	0.12423
3225.31041	0.12201
3223.25082	0.12029
3221.19124	0.11896
3219.13165	0.11751
3217.07207	0.11588
3215.01248	0.11473
3212.95290	0.11389
3210.89331	0.11290
3208.83373	0.11187
3206.77414	0.11091
3204.71456	0.10978
3202.65497	0.10836
3200.59539	0.10747
3198.53580	0.10736
3196.47622	0.10699
3194.41663	0.10592
3192.35705	0.10466
3190.29746	0.10370
3188.23788	0.10278
3186.17829	0.10167
3184.11871	0.10074
3182.05912	0.09971
3179.99954	0.09816
3177.93995	0.09647
3175.88037	0.09508
3173.82078	0.09392
3171.76119	0.09274
3169.70161	0.09144
3167.64202	0.09008
3165.58244	0.08899
3163.52285	0.08793
3161.46327	0.08646
3159.40368	0.08516
3157.34410	0.08456
3155.28451	0.08411
3153.22493	0.08324
3151.16534	0.08217
3149.10576	0.08135
3147.04617	0.08055
3144.98659	0.07988
3142.92700	0.08001
3140.86742	0.08048
3138.80783	0.08015
3136.74825	0.07918
3134.68866	0.07861
3132.62908	0.07865
3130.56949	0.07884
3128.50991	0.07872
3126.45032	0.07831
3124.39074	0.07823
3122.33115	0.07850
3120.27156	0.07894
3118.21198	0.07950
3116.15239	0.07991
3114.09281	0.08008
3112.03322	0.08042
3109.97364	0.08089
3107.91405	0.08121
3105.85447	0.08170
3103.79488	0.08283
3101.73530	0.08419
3099.67571	0.08518
3097.61613	0.08613
3095.55654	0.08736
3093.49696	0.08854
3091.43737	0.08950
3089.37779	0.09021
3087.31820	0.09100
3085.25862	0.09206
3083.19903	0.09298
3081.13945	0.09339
3079.07986	0.09347
3077.02028	0.09347
3074.96069	0.09335
3072.90111	0.09306
3070.84152	0.09255
3068.78194	0.09201
3066.72235	0.09169
3064.66276	0.09114
3062.60318	0.09026
3060.54359	0.08959
3058.48401	0.08906
3056.42442	0.08818
3054.36484	0.08700
3052.30525	0.08570
3050.24567	0.08423
3048.18608	0.08269
3046.12650	0.08123
3044.06691	0.07985
3042.00733	0.07862
3039.94774	0.07723
3037.88816	0.07554
3035.82857	0.07397
3033.76899	0.07269
3031.70940	0.07174
3029.64982	0.07104
3027.59023	0.07025
3025.53065	0.06936
3023.47106	0.06854
3021.41148	0.06768
3019.35189	0.06675
3017.29231	0.06603
3015.23272	0.06568
3013.17313	0.06561
3011.11355	0.06534
3009.05396	0.06460
3006.99438	0.06388
3004.93479	0.06327
3002.87521	0.06263
3000.81562	0.06253
2998.75604	0.06301
2996.69645	0.06325
2994.63687	0.06294
2992.57728	0.06286
2990.51770	0.06331
2988.45811	0.06358
2986.39853	0.06387
2984.33894	0.06485
2982.27936	0.06615
2980.21977	0.06726
2978.16019	0.06854
2976.10060	0.07028
2974.04102	0.07244
2971.98143	0.07505
2969.92185	0.07828
2967.86226	0.08219
2965.80268	0.08611
2963.74309	0.08930
2961.68351	0.09217
2959.62392	0.09598
2957.56433	0.10112
2955.50475	0.10719
2953.44516	0.11425
2951.38558	0.12275
2949.32599	0.13235
2947.26641	0.14207
2945.20682	0.15126
2943.14724	0.15993
2941.08765	0.16843
2939.02807	0.17706
2936.96848	0.18568
2934.90890	0.19343
2932.84931	0.19922
2930.78973	0.20241
2928.73014	0.20276
2926.67056	0.20068
2924.61097	0.19674
2922.55139	0.19134
2920.49180	0.18511
2918.43222	0.17823
2916.37263	0.17134
2914.31305	0.16598
2912.25346	0.16237
2910.19388	0.15935
2908.13429	0.15601
2906.07471	0.15198
2904.01512	0.14734
2901.95553	0.14233
2899.89595	0.13711
2897.83636	0.13211
2895.77678	0.12773
2893.71719	0.12396
2891.65761	0.12061
2889.59802	0.11813
2887.53844	0.11702
2885.47885	0.11711
2883.41927	0.11823
2881.35968	0.12064
2879.30010	0.12450
2877.24051	0.12924
2875.18093	0.13421
2873.12134	0.13897
2871.06176	0.14287
2869.00217	0.14592
2866.94259	0.14914
2864.88300	0.15328
2862.82342	0.15814
2860.76383	0.16262
2858.70425	0.16542
2856.64466	0.16575
2854.58508	0.16310
2852.52549	0.15722
2850.46590	0.14837
2848.40632	0.13806
2846.34673	0.12858
2844.28715	0.12062
2842.22756	0.11374
2840.16798	0.10795
2838.10839	0.10330
2836.04881	0.09969
2833.98922	0.09683
2831.92964	0.09445
2829.87005	0.09271
2827.81047	0.09150
2825.75088	0.09034
2823.69130	0.08922
2821.63171	0.08826
2819.57213	0.08721
2817.51254	0.08603
2815.45296	0.08477
2813.39337	0.08356
2811.33379	0.08259
2809.27420	0.08177
2807.21462	0.08108
2805.15503	0.08060
2803.09545	0.08015
2801.03586	0.07946
2798.97628	0.07863
2796.91669	0.07800
2794.85710	0.07757
2792.79752	0.07708
2790.73793	0.07657
2788.67835	0.07621
2786.61876	0.07569
2784.55918	0.07487
2782.49959	0.07415
2780.44001	0.07376
2778.38042	0.07357
2776.32084	0.07332
2774.26125	0.07287
2772.20167	0.07230
2770.14208	0.07188
2768.08250	0.07181
2766.02291	0.07176
2763.96333	0.07147
2761.90374	0.07105
2759.84416	0.07069
2757.78457	0.07047
2755.72499	0.07029
2753.66540	0.07014
2751.60582	0.06987
2749.54623	0.06938
2747.48665	0.06902
2745.42706	0.06900
2743.36747	0.06896
2741.30789	0.06870
2739.24830	0.06849
2737.18872	0.06843
2735.12913	0.06835
2733.06955	0.06796
2731.00996	0.06729
2728.95038	0.06679
2726.89079	0.06663
2724.83121	0.06656
2722.77162	0.06639
2720.71204	0.06605
2718.65245	0.06553
2716.59287	0.06523
2714.53328	0.06520
2712.47370	0.06500
2710.41411	0.06460
2708.35453	0.06434
2706.29494	0.06425
2704.23536	0.06428
2702.17577	0.06429
2700.11619	0.06413
2698.05660	0.06387
2695.99702	0.06362
2693.93743	0.06340
2691.87785	0.06325
2689.81826	0.06328
2687.75867	0.06346
2685.69909	0.06335
2683.63950	0.06295
2681.57992	0.06264
2679.52033	0.06250
2677.46075	0.06246
2675.40116	0.06251
2673.34158	0.06260
2671.28199	0.06252
2669.22241	0.06212
2667.16282	0.06167
2665.10324	0.06160
2663.04365	0.06173
2660.98407	0.06163
2658.92448	0.06140
2656.86490	0.06135
2654.80531	0.06150
2652.74573	0.06146
2650.68614	0.06109
2648.62656	0.06076
2646.56697	0.06070
2644.50739	0.06069
2642.44780	0.06052
2640.38822	0.06022
2638.32863	0.05978
2636.26904	0.05948
2634.20946	0.05973
2632.14987	0.06004
2630.09029	0.05973
2628.03070	0.05921
2625.97112	0.05894
2623.91153	0.05875
2621.85195	0.05867
2619.79236	0.05882
2617.73278	0.05890
2615.67319	0.05865
2613.61361	0.05831
2611.55402	0.05800
2609.49444	0.05776
2607.43485	0.05762
2605.37527	0.05749
2603.31568	0.05737
2601.25610	0.05730
2599.19651	0.05728
2597.13693	0.05709
2595.07734	0.05673
2593.01776	0.05661
2590.95817	0.05670
2588.89859	0.05675
2586.83900	0.05674
2584.77942	0.05664
2582.71983	0.05638
2580.66024	0.05599
2578.60066	0.05541
2576.54107	0.05519
2574.48149	0.05577
2572.42190	0.05623
2570.36232	0.05596
2568.30273	0.05542
2566.24315	0.05492
2564.18356	0.05465
2562.12398	0.05475
2560.06439	0.05487
2558.00481	0.05487
2555.94522	0.05483
2553.88564	0.05456
2551.82605	0.05396
2549.76647	0.05343
2547.70688	0.05358
2545.64730	0.05420
2543.58771	0.05413
2541.52813	0.05347
2539.46854	0.05325
2537.40896	0.05340
2535.34937	0.05349
2533.28979	0.05342
2531.23020	0.05328
2529.17062	0.05331
2527.11103	0.05330
2525.05144	0.05314
2522.99186	0.05315
2520.93227	0.05320
2518.87269	0.05300
2516.81310	0.05274
2514.75352	0.05261
2512.69393	0.05267
2510.63435	0.05286
2508.57476	0.05267
2506.51518	0.05204
2504.45559	0.05174
2502.39601	0.05206
2500.33642	0.05229
2498.27684	0.05202
2496.21725	0.05176
2494.15767	0.05187
2492.09808	0.05228
2490.03850	0.05246
2487.97891	0.05209
2485.91933	0.05172
2483.85974	0.05143
2481.80016	0.05085
2479.74057	0.05038
2477.68099	0.05052
2475.62140	0.05109
2473.56181	0.05139
2471.50223	0.05124
2469.44264	0.05116
2467.38306	0.05121
2465.32347	0.05115
2463.26389	0.05121
2461.20430	0.05137
2459.14472	0.05140
2457.08513	0.05145
2455.02555	0.05140
2452.96596	0.05107
2450.90638	0.05081
2448.84679	0.05070
2446.78721	0.05044
2444.72762	0.05013
2442.66804	0.05005
2440.60845	0.05011
2438.54887	0.05016
2436.48928	0.05015
2434.42970	0.05007
2432.37011	0.04984
2430.31053	0.04978
2428.25094	0.05005
2426.19136	0.05018
2424.13177	0.05014
2422.07219	0.05026
2420.01260	0.05049
2417.95301	0.05063
2415.89343	0.05052
2413.83384	0.05026
2411.77426	0.05035
2409.71467	0.05040
2407.65509	0.04986
2405.59550	0.04932
2403.53592	0.04914
2401.47633	0.04917
2399.41675	0.04961
2397.35716	0.04977
2395.29758	0.04944
2393.23799	0.04910
2391.17841	0.04919
2389.11882	0.04939
2387.05924	0.04933
2384.99965	0.04928
2382.94007	0.04945
2380.88048	0.04967
2378.82090	0.04996
2376.76131	0.05074
2374.70173	0.05033
2372.64214	0.05022
2370.58256	0.05143
2368.52297	0.05186
2366.46338	0.05333
2364.40380	0.05348
2362.34421	0.05276
2360.28463	0.05385
2358.22504	0.05291
2356.16546	0.05211
2354.10587	0.05124
2352.04629	0.05032
2349.98670	0.05311
2347.92712	0.05195
2345.86753	0.04986
2343.80795	0.05113
2341.74836	0.05044
2339.68878	0.05215
2337.62919	0.05277
2335.56961	0.05095
2333.51002	0.05132
2331.45044	0.05048
2329.39085	0.05199
2327.33127	0.05133
2325.27168	0.05201
2323.21210	0.05164
2321.15251	0.05119
2319.09293	0.05085
2317.03334	0.05052
2314.97376	0.05076
2312.91417	0.05070
2310.85458	0.05015
2308.79500	0.04955
2306.73541	0.04884
2304.67583	0.04832
2302.61624	0.04780
2300.55666	0.04781
2298.49707	0.04828
2296.43749	0.04846
2294.37790	0.04779
2292.31832	0.04728
2290.25873	0.04725
2288.19915	0.04730
2286.13956	0.04731
2284.07998	0.04762
2282.02039	0.04769
2279.96081	0.04745
2277.90122	0.04732
2275.84164	0.04712
2273.78205	0.04681
2271.72247	0.04647
2269.66288	0.04624
2267.60330	0.04585
2265.54371	0.04498
2263.48413	0.04396
2261.42454	0.04375
2259.36495	0.04452
2257.30537	0.04504
2255.24578	0.04462
2253.18620	0.04407
2251.12661	0.04393
2249.06703	0.04419
2247.00744	0.04419
2244.94786	0.04393
2242.88827	0.04356
2240.82869	0.04307
2238.76910	0.04294
2236.70952	0.04338
2234.64993	0.04370
2232.59035	0.04343
2230.53076	0.04292
2228.47118	0.04251
2226.41159	0.04210
2224.35201	0.04179
2222.29242	0.04196
2220.23284	0.04254
2218.17325	0.04263
2216.11367	0.04181
2214.05408	0.04120
2211.99450	0.04120
2209.93491	0.04107
2207.87533	0.04071
2205.81574	0.04101
2203.75615	0.04172
2201.69657	0.04198
2199.63698	0.04211
2197.57740	0.04242
2195.51781	0.04260
2193.45823	0.04209
2191.39864	0.04127
2189.33906	0.04099
2187.27947	0.04087
2185.21989	0.04050
2183.16030	0.04013
2181.10072	0.03969
2179.04113	0.03907
2176.98155	0.03801
2174.92196	0.03706
2172.86238	0.03702
2170.80279	0.03774
2168.74321	0.03933
2166.68362	0.04115
2164.62404	0.04184
2162.56445	0.04131
2160.50487	0.03865
2158.44528	0.03377
2156.38570	0.03117
2154.32611	0.03272
2152.26652	0.03509
2150.20694	0.03625
2148.14735	0.03697
2146.08777	0.03776
2144.02818	0.03810
2141.96860	0.03789
2139.90901	0.03782
2137.84943	0.03818
2135.78984	0.03872
2133.73026	0.03913
2131.67067	0.03973
2129.61109	0.04057
2127.55150	0.04079
2125.49192	0.04030
2123.43233	0.04016
2121.37275	0.04089
2119.31316	0.04160
2117.25358	0.04161
2115.19399	0.04167
2113.13441	0.04216
2111.07482	0.04236
2109.01524	0.04204
2106.95565	0.04171
2104.89607	0.04141
2102.83648	0.04087
2100.77690	0.04028
2098.71731	0.04004
2096.65772	0.04022
2094.59814	0.04044
2092.53855	0.04047
2090.47897	0.04040
2088.41938	0.04051
2086.35980	0.04091
2084.30021	0.04106
2082.24063	0.04082
2080.18104	0.04010
2078.12146	0.03914
2076.06187	0.03898
2074.00229	0.03967
2071.94270	0.04015
2069.88312	0.03995
2067.82353	0.03944
2065.76395	0.03886
2063.70436	0.03831
2061.64478	0.03841
2059.58519	0.03900
2057.52561	0.03873
2055.46602	0.03787
2053.40644	0.03793
2051.34685	0.03835
2049.28727	0.03798
2047.22768	0.03709
2045.16810	0.03610
2043.10851	0.03563
2041.04892	0.03607
2038.98934	0.03601
2036.92975	0.03498
2034.87017	0.03427
2032.81058	0.03363
2030.75100	0.03297
2028.69141	0.03372
2026.63183	0.03498
2024.57224	0.03509
2022.51266	0.03464
2020.45307	0.03467
2018.39349	0.03511
2016.33390	0.03510
2014.27432	0.03482
2012.21473	0.03470
2010.15515	0.03418
2008.09556	0.03377
2006.03598	0.03403
2003.97639	0.03477
2001.91681	0.03543
1999.85722	0.03559
1997.79764	0.03565
1995.73805	0.03557
1993.67847	0.03550
1991.61888	0.03595
1989.55929	0.03638
1987.49971	0.03601
1985.44012	0.03516
1983.38054	0.03488
1981.32095	0.03471
1979.26137	0.03384
1977.20178	0.03310
1975.14220	0.03300
1973.08261	0.03243
1971.02303	0.03140
1968.96344	0.03118
1966.90386	0.03142
1964.84427	0.03179
1962.78469	0.03301
1960.72510	0.03400
1958.66552	0.03369
1956.60593	0.03297
1954.54635	0.03295
1952.48676	0.03341
1950.42718	0.03358
1948.36759	0.03360
1946.30801	0.03376
1944.24842	0.03426
1942.18884	0.03480
1940.12925	0.03488
1938.06967	0.03495
1936.01008	0.03457
1933.95049	0.03411
1931.89091	0.03426
1929.83132	0.03470
1927.77174	0.03479
1925.71215	0.03462
1923.65257	0.03472
1921.59298	0.03473
1919.53340	0.03516
1917.47381	0.03527
1915.41423	0.03433
1913.35464	0.03409
1911.29506	0.03455
1909.23547	0.03484
1907.17589	0.03475
1905.11630	0.03473
1903.05672	0.03482
1900.99713	0.03471
1898.93755	0.03469
1896.87796	0.03508
1894.81838	0.03516
1892.75879	0.03451
1890.69921	0.03422
1888.63962	0.03404
1886.58004	0.03395
1884.52045	0.03426
1882.46086	0.03421
1880.40128	0.03402
1878.34169	0.03400
1876.28211	0.03385
1874.22252	0.03340
1872.16294	0.03314
1870.10335	0.03369
1868.04377	0.03368
1865.98418	0.03291
1863.92460	0.03295
1861.86501	0.03332
1859.80543	0.03348
1857.74584	0.03351
1855.68626	0.03337
1853.62667	0.03325
1851.56709	0.03324
1849.50750	0.03302
1847.44792	0.03276
1845.38833	0.03347
1843.32875	0.03349
1841.26916	0.03230
1839.20958	0.03225
1837.14999	0.03271
1835.09041	0.03247
1833.03082	0.03216
1830.97124	0.03264
1828.91165	0.03264
1826.85206	0.03242
1824.79248	0.03269
1822.73289	0.03218
1820.67331	0.03154
1818.61372	0.03129
1816.55414	0.03114
1814.49455	0.03113
1812.43497	0.03148
1810.37538	0.03154
1808.31580	0.03104
1806.25621	0.03057
1804.19663	0.03048
1802.13704	0.03086
1800.07746	0.03091
1798.01787	0.03031
1795.95829	0.03014
1793.89870	0.03109
1791.83912	0.03146
1789.77953	0.03021
1787.71995	0.02965
1785.66036	0.03015
1783.60078	0.03027
1781.54119	0.03024
1779.48161	0.02997
1777.42202	0.02922
1775.36243	0.02915
1773.30285	0.03004
1771.24326	0.02986
1769.18368	0.02898
1767.12409	0.02864
1765.06451	0.02855
1763.00492	0.02935
1760.94534	0.02948
1758.88575	0.02907
1756.82617	0.02925
1754.76658	0.02896
1752.70700	0.02943
1750.64741	0.03029
1748.58783	0.02999
1746.52824	0.02958
1744.46866	0.02982
1742.40907	0.03050
1740.34949	0.03097
1738.28990	0.03009
1736.23032	0.03034
1734.17073	0.03181
1732.11115	0.03044
1730.05156	0.02913
1727.99198	0.02898
1725.93239	0.02889
1723.87281	0.02852
1721.81322	0.02772
1719.75363	0.02821
1717.69405	0.02911
1715.63446	0.02798
1713.57488	0.02670
1711.51529	0.02640
1709.45571	0.02661
1707.39612	0.02694
1705.33654	0.02638
1703.27695	0.02543
1701.21737	0.02646
1699.15778	0.02614
1697.09820	0.02573
1695.03861	0.02620
1692.97903	0.02549
1690.91944	0.02586
1688.85986	0.02646
1686.80027	0.02822
1684.74069	0.03226
1682.68110	0.03391
1680.62152	0.03470
1678.56193	0.03759
1676.50235	0.04214
1674.44276	0.04591
1672.38318	0.04898
1670.32359	0.05447
1668.26401	0.05997
1666.20442	0.06476
1664.14483	0.07197
1662.08525	0.08033
1660.02566	0.08714
1657.96608	0.09301
1655.90649	0.10152
1653.84691	0.11532
1651.78732	0.12653
1649.72774	0.13470
1647.66815	0.14823
1645.60857	0.16428
1643.54898	0.17771
1641.48940	0.19018
1639.42981	0.20320
1637.37023	0.21861
1635.31064	0.23427
1633.25106	0.24322
1631.19147	0.24660
1629.13189	0.24692
1627.07230	0.24382
1625.01272	0.23887
1622.95313	0.23236
1620.89355	0.22369
1618.83396	0.21546
1616.77438	0.20592
1614.71479	0.19323
1612.65520	0.18195
1610.59562	0.17294
1608.53603	0.16416
1606.47645	0.15525
1604.41686	0.14644
1602.35728	0.13768
1600.29769	0.12931
1598.23811	0.12206
1596.17852	0.11604
1594.11894	0.11082
1592.05935	0.10636
1589.99977	0.10276
1587.94018	0.09986
1585.88060	0.09763
1583.82101	0.09610
1581.76143	0.09499
1579.70184	0.09472
1577.64226	0.09677
1575.58267	0.09914
1573.52309	0.10000
1571.46350	0.10323
1569.40392	0.10855
1567.34433	0.11282
1565.28475	0.11665
1563.22516	0.12030
1561.16558	0.12676
1559.10599	0.13644
1557.04640	0.14232
1554.98682	0.14696
1552.92723	0.15287
1550.86765	0.15933
1548.80806	0.16549
1546.74848	0.17123
1544.68889	0.17765
1542.62931	0.18570
1540.56972	0.19603
1538.51014	0.20349
1536.45055	0.20741
1534.39097	0.21228
1532.33138	0.21505
1530.27180	0.21392
1528.21221	0.21105
1526.15263	0.20594
1524.09304	0.19922
1522.03346	0.19220
1519.97387	0.18347
1517.91429	0.17501
1515.85470	0.16738
1513.79512	0.15981
1511.73553	0.15309
1509.67595	0.14766
1507.61636	0.14299
1505.55677	0.13522
1503.49719	0.12698
1501.43760	0.12225
1499.37802	0.11897
1497.31843	0.11488
1495.25885	0.10955
1493.19926	0.10496
1491.13968	0.10240
1489.08009	0.09978
1487.02051	0.09687
1484.96092	0.09564
1482.90134	0.09734
1480.84175	0.10177
1478.78217	0.10807
1476.72258	0.11532
1474.66300	0.12107
1472.60341	0.12268
1470.54383	0.12061
1468.48424	0.12066
1466.42466	0.12549
1464.36507	0.13045
1462.30549	0.13093
1460.24590	0.12918
1458.18632	0.12739
1456.12673	0.12345
1454.06715	0.11863
1452.00756	0.11581
1449.94797	0.11418
1447.88839	0.11281
1445.82880	0.11161
1443.76922	0.11122
1441.70963	0.11133
1439.65005	0.11199
1437.59046	0.11368
1435.53088	0.11378
1433.47129	0.11213
1431.41171	0.11104
1429.35212	0.10980
1427.29254	0.10844
1425.23295	0.10846
1423.17337	0.11000
1421.11378	0.11451
1419.05420	0.12214
1416.99461	0.12771
1414.93503	0.12817
1412.87544	0.12391
1410.81586	0.11679
1408.75627	0.10952
1406.69669	0.10394
1404.63710	0.09969
1402.57752	0.09623
1400.51793	0.09418
1398.45834	0.09289
1396.39876	0.09210
1394.33917	0.09187
1392.27959	0.09153
1390.22000	0.09203
1388.16042	0.09360
1386.10083	0.09480
1384.04125	0.09559
1381.98166	0.09684
1379.92208	0.09849
1377.86249	0.10050
1375.80291	0.10315
1373.74332	0.10579
1371.68374	0.10740
1369.62415	0.10831
1367.56457	0.10833
1365.50498	0.10761
1363.44540	0.10685
1361.38581	0.10546
1359.32623	0.10374
1357.26664	0.10241
1355.20706	0.10113
1353.14747	0.09963
1351.08789	0.09807
1349.02830	0.09653
1346.96872	0.09505
1344.90913	0.09368
1342.84954	0.09250
1340.78996	0.09167
1338.73037	0.09068
1336.67079	0.08937
1334.61120	0.08834
1332.55162	0.08761
1330.49203	0.08696
1328.43245	0.08633
1326.37286	0.08569
1324.31328	0.08493
1322.25369	0.08415
1320.19411	0.08357
1318.13452	0.08319
1316.07494	0.08308
1314.01535	0.08338
1311.95577	0.08380
1309.89618	0.08424
1307.83660	0.08476
1305.77701	0.08522
1303.71743	0.08561
1301.65784	0.08578
1299.59826	0.08572
1297.53867	0.08568
1295.47909	0.08581
1293.41950	0.08611
1291.35991	0.08669
1289.30033	0.08768
1287.24074	0.08910
1285.18116	0.09105
1283.12157	0.09378
1281.06199	0.09735
1279.00240	0.10151
1276.94282	0.10557
1274.88323	0.10863
1272.82365	0.11028
1270.76406	0.11058
1268.70448	0.10978
1266.64489	0.10831
1264.58531	0.10650
1262.52572	0.10463
1260.46614	0.10289
1258.40655	0.10128
1256.34697	0.09984
1254.28738	0.09867
1252.22780	0.09766
1250.16821	0.09670
1248.10863	0.09579
1246.04904	0.09490
1243.98946	0.09409
1241.92987	0.09347
1239.87029	0.09294
1237.81070	0.09234
1235.75111	0.09162
1233.69153	0.09071
1231.63194	0.08951
1229.57236	0.08822
1227.51277	0.08728
1225.45319	0.08680
1223.39360	0.08635
1221.33402	0.08531
1219.27443	0.08374
1217.21485	0.08225
1215.15526	0.08128
1213.09568	0.08091
1211.03609	0.08095
1208.97651	0.08138
1206.91692	0.08261
1204.85734	0.08515
1202.79775	0.08915
1200.73817	0.09383
1198.67858	0.09746
1196.61900	0.09844
1194.55941	0.09651
1192.49983	0.09301
1190.44024	0.08969
1188.38066	0.08752
1186.32107	0.08676
1184.26149	0.08741
1182.20190	0.08900
1180.14231	0.09051
1178.08273	0.09071
1176.02314	0.08912
1173.96356	0.08634
1171.90397	0.08332
1169.84439	0.08057
1167.78480	0.07825
1165.72522	0.07635
1163.66563	0.07476
1161.60605	0.07350
1159.54646	0.07271
1157.48688	0.07247
1155.42729	0.07284
1153.36771	0.07373
1151.30812	0.07495
1149.24854	0.07625
1147.18895	0.07735
1145.12937	0.07816
1143.06978	0.07881
1141.01020	0.07932
1138.95061	0.07958
1136.89103	0.07908
1134.83144	0.07758
1132.77186	0.07562
1130.71227	0.07377
1128.65268	0.07227
1126.59310	0.07113
1124.53351	0.07024
1122.47393	0.06954
1120.41434	0.06892
1118.35476	0.06827
1116.29517	0.06760
1114.23559	0.06702
1112.17600	0.06648
1110.11642	0.06594
1108.05683	0.06551
1105.99725	0.06526
1103.93766	0.06501
1101.87808	0.06466
1099.81849	0.06442
1097.75891	0.06426
1095.69932	0.06396
1093.63974	0.06357
1091.58015	0.06327
1089.52057	0.06305
1087.46098	0.06271
1085.40140	0.06225
1083.34181	0.06182
1081.28223	0.06151
1079.22264	0.06129
1077.16306	0.06101
1075.10347	0.06061
1073.04388	0.06028
1070.98430	0.06025
1068.92471	0.06059
1066.86513	0.06108
1064.80554	0.06139
1062.74596	0.06144
1060.68637	0.06129
1058.62679	0.06102
1056.56720	0.06074
1054.50762	0.06056
1052.44803	0.06047
1050.38845	0.06038
1048.32886	0.06028
1046.26928	0.06044
1044.20969	0.06074
1042.15011	0.06075
1040.09052	0.06044
1038.03094	0.06007
1035.97135	0.05970
1033.91177	0.05920
1031.85218	0.05856
1029.79260	0.05795
1027.73301	0.05746
1025.67343	0.05711
1023.61384	0.05679
1021.55425	0.05644
1019.49467	0.05617
1017.43508	0.05601
1015.37550	0.05587
1013.31591	0.05572
1011.25633	0.05553
1009.19674	0.05519
1007.13716	0.05475
1005.07757	0.05434
1003.01799	0.05392
1000.95840	0.05345
998.89882	0.05299
996.83923	0.05262
994.77965	0.05231
992.72006	0.05196
990.66048	0.05164
988.60089	0.05141
986.54131	0.05113
984.48172	0.05067
982.42214	0.05003
980.36255	0.04935
978.30297	0.04879
976.24338	0.04837
974.18380	0.04801
972.12421	0.04776
970.06463	0.04761
968.00504	0.04743
965.94545	0.04719
963.88587	0.04695
961.82628	0.04681
959.76670	0.04680
957.70711	0.04679
955.64753	0.04670
953.58794	0.04661
951.52836	0.04661
949.46877	0.04679
947.40919	0.04711
945.34960	0.04757
943.29002	0.04845
941.23043	0.05012
939.17085	0.05264
937.11126	0.05561
935.05168	0.05802
932.99209	0.05886
930.93251	0.05796
928.87292	0.05614
926.81334	0.05438
924.75375	0.05305
922.69417	0.05201
920.63458	0.05105
918.57500	0.05013
916.51541	0.04927
914.45582	0.04854
912.39624	0.04812
910.33665	0.04810
908.27707	0.04848
906.21748	0.04900
904.15790	0.04906
902.09831	0.04842
900.03873	0.04741
897.97914	0.04640
895.91956	0.04559
893.85997	0.04497
891.80039	0.04458
889.74080	0.04439
887.68122	0.04414
885.62163	0.04370
883.56205	0.04327
881.50246	0.04305
879.44288	0.04292
877.38329	0.04271
875.32371	0.04243
873.26412	0.04211
871.20454	0.04181
869.14495	0.04160
867.08537	0.04151
865.02578	0.04133
862.96620	0.04108
860.90661	0.04097
858.84702	0.04094
856.78744	0.04082
854.72785	0.04070
852.66827	0.04060
850.60868	0.04036
848.54910	0.04005
846.48951	0.03992
844.42993	0.03986
842.37034	0.03973
840.31076	0.03959
838.25117	0.03943
836.19159	0.03918
834.13200	0.03899
832.07242	0.03893
830.01283	0.03874
827.95325	0.03847
825.89366	0.03839
823.83408	0.03843
821.77449	0.03839
819.71491	0.03833
817.65532	0.03833
815.59574	0.03838
813.53615	0.03840
811.47657	0.03839
809.41698	0.03838
807.35740	0.03834
805.29781	0.03840
803.23822	0.03868
801.17864	0.03903
799.11905	0.03931
797.05947	0.03947
794.99988	0.03951
792.94030	0.03949
790.88071	0.03950
788.82113	0.03953
786.76154	0.03954
784.70196	0.03957
782.64237	0.03964
780.58279	0.03973
778.52320	0.03982
776.46362	0.03995
774.40403	0.04018
772.34445	0.04030
770.28486	0.04040
768.22528	0.04070
766.16569	0.04102
764.10611	0.04121
762.04652	0.04136
759.98694	0.04159
757.92735	0.04189
755.86777	0.04213
753.80818	0.04235
751.74859	0.04257
749.68901	0.04275
747.62942	0.04291
745.56984	0.04304
743.51025	0.04328
741.45067	0.04386
739.39108	0.04493
737.33150	0.04661
735.27191	0.04881
733.21233	0.05128
731.15274	0.05381
729.09316	0.05589
727.03357	0.05684
724.97399	0.05683
722.91440	0.05662
720.85482	0.05629
718.79523	0.05633
716.73565	0.05628
714.67606	0.05638
712.61648	0.05654
710.55689	0.05688
708.49731	0.05745
706.43772	0.05802
704.37814	0.05863
702.31855	0.05947
700.25897	0.06054
698.19938	0.06182
696.13979	0.06336
694.08021	0.06506
692.02062	0.06670
689.96104	0.06818
687.90145	0.06954
685.84187	0.07069
683.78228	0.07137
681.72270	0.07157
679.66311	0.07149
677.60353	0.07128
675.54394	0.07089
673.48436	0.07029
671.42477	0.07105
669.36519	0.07240
667.30560	0.06610
665.24602	0.06797
663.18643	0.06613
661.12685	0.06462
659.06726	0.06376
657.00768	0.06290
654.94809	0.06186
652.88851	0.06075
650.82892	0.05975
648.76934	0.05869
646.70975	0.05777
644.65016	0.05683
642.59058	0.05600
640.53099	0.05530
638.47141	0.05468
636.41182	0.05411
634.35224	0.05360
632.29265	0.05320
630.23307	0.05285
628.17348	0.05235
626.11390	0.05178
624.05431	0.05130
621.99473	0.05101
619.93514	0.05091
617.87556	0.05086
615.81597	0.05064
613.75639	0.05024
611.69680	0.04997
609.63722	0.04996
607.57763	0.05004
605.51805	0.05002
603.45846	0.05002
601.39888	0.05018
599.33929	0.05042
597.27971	0.05079
595.22012	0.05136
593.16054	0.05206
591.10095	0.05277
589.04136	0.05379
586.98178	0.05545
584.92219	0.05760
582.86261	0.06000
580.80302	0.06237
578.74344	0.06422
576.68385	0.06516
574.62427	0.06501
572.56468	0.06396
570.50510	0.06241
568.44551	0.06090
566.38593	0.05972
564.32634	0.05856
562.26676	0.05722
560.20717	0.05583
558.14759	0.05466
556.08800	0.05374
554.02842	0.05298
551.96883	0.05246
549.90925	0.05192
547.84966	0.05107
545.79008	0.05016
543.73049	0.04971
541.67091	0.04962
539.61132	0.04960
537.55173	0.04982
535.49215	0.05032
533.43256	0.05065
531.37298	0.05052
529.31339	0.05012
527.25381	0.04977
525.19422	0.04931
523.13464	0.04859
521.07505	0.04785
519.01547	0.04720
516.95588	0.04671
514.89630	0.04643
512.83671	0.04629
510.77713	0.04595
508.71754	0.04534
506.65796	0.04470
504.59837	0.04430
502.53879	0.04406
500.47920	0.04348
498.41962	0.04285
496.36003	0.04251
494.30045	0.04223
492.24086	0.04191
490.18128	0.04164
488.12169	0.04127
486.06211	0.04066
484.00252	0.04003
481.94293	0.03971
479.88335	0.03960
477.82376	0.03920
475.76418	0.03851
473.70459	0.03802
471.64501	0.03760
469.58542	0.03713
467.52584	0.03689
465.46625	0.03683
463.40667	0.03669
461.34708	0.03631
459.28750	0.03602
457.22791	0.03581
455.16833	0.03542
453.10874	0.03499
451.04916	0.03452
448.98957	0.03418
446.92999	0.03390
444.87040	0.03361
442.81082	0.03355
440.75123	0.03349
438.69165	0.03321
436.63206	0.03273
434.57248	0.03219
432.51289	0.03192
430.45330	0.03178
428.39372	0.03156
426.33413	0.03141
424.27455	0.03128
422.21496	0.03110
420.15538	0.03116
418.09579	0.03081
416.03621	0.02995
413.97662	0.02942
411.91704	0.02942
409.85745	0.03013
407.79787	0.03102
405.73828	0.03115
403.67870	0.03057
401.61911	0.03022
399.55953	0.03056
