3997.65486	0.00839
3995.59527	0.00908
3993.53569	0.00951
3991.47610	0.00950
3989.41652	0.00915
3987.35693	0.00869
3985.29735	0.00837
3983.23776	0.00830
3981.17817	0.00850
3979.11859	0.00883
3977.05900	0.00925
3974.99942	0.00971
3972.93983	0.00993
3970.88025	0.00990
3968.82066	0.00955
3966.76108	0.00854
3964.70149	0.00757
3962.64191	0.00741
3960.58232	0.00768
3958.52274	0.00830
3956.46315	0.00913
3954.40357	0.00943
3952.34398	0.00912
3950.28440	0.00866
3948.22481	0.00828
3946.16523	0.00825
3944.10564	0.00860
3942.04606	0.00874
3939.98647	0.00845
3937.92689	0.00840
3935.86730	0.00860
3933.80772	0.00856
3931.74813	0.00844
3929.68855	0.00842
3927.62896	0.00820
3925.56937	0.00768
3923.50979	0.00757
3921.45020	0.00838
3919.39062	0.00923
3917.33103	0.00932
3915.27145	0.00920
3913.21186	0.00921
3911.15228	0.00896
3909.09269	0.00857
3907.03311	0.00844
3904.97352	0.00871
3902.91394	0.00948
3900.85435	0.01033
3898.79477	0.01019
3896.73518	0.00909
3894.67560	0.00830
3892.61601	0.00839
3890.55643	0.00894
3888.49684	0.00941
3886.43726	0.00956
3884.37767	0.00943
3882.31809	0.00937
3880.25850	0.00937
3878.19892	0.00902
3876.13933	0.00853
3874.07974	0.00835
3872.02016	0.00856
3869.96057	0.00875
3867.90099	0.00868
3865.84140	0.00869
3863.78182	0.00863
3861.72223	0.00828
3859.66265	0.00801
3857.60306	0.00808
3855.54348	0.00843
3853.48389	0.00864
3851.42431	0.00815
3849.36472	0.00762
3847.30514	0.00773
3845.24555	0.00824
3843.18597	0.00848
3841.12638	0.00822
3839.06680	0.00813
3837.00721	0.00882
3834.94763	0.00944
3832.88804	0.00927
3830.82846	0.00871
3828.76887	0.00833
3826.70929	0.00847
3824.64970	0.00882
3822.59012	0.00889
3820.53053	0.00882
3818.47094	0.00889
3816.41136	0.00892
3814.35177	0.00869
3812.29219	0.00826
3810.23260	0.00798
3808.17302	0.00801
3806.11343	0.00801
3804.05385	0.00785
3801.99426	0.00799
3799.93468	0.00840
3797.87509	0.00878
3795.81551	0.00900
3793.75592	0.00899
3791.69634	0.00893
3789.63675	0.00891
3787.57717	0.00871
3785.51758	0.00846
3783.45800	0.00854
3781.39841	0.00898
3779.33883	0.00922
3777.27924	0.00860
3775.21966	0.00775
3773.16007	0.00778
3771.10049	0.00853
3769.04090	0.00905
3766.98132	0.00902
3764.92173	0.00873
3762.86214	0.00849
3760.80256	0.00828
3758.74297	0.00785
3756.68339	0.00759
3754.62380	0.00774
3752.56422	0.00805
3750.50463	0.00861
3748.44505	0.00915
3746.38546	0.00884
3744.32588	0.00792
3742.26629	0.00746
3740.20671	0.00791
3738.14712	0.00849
3736.08754	0.00868
3734.02795	0.00881
3731.96837	0.00877
3729.90878	0.00829
3727.84920	0.00776
3725.78961	0.00748
3723.73003	0.00744
3721.67044	0.00754
3719.61086	0.00780
3717.55127	0.00817
3715.49169	0.00857
3713.43210	0.00888
3711.37251	0.00913
3709.31293	0.00884
3707.25334	0.00829
3705.19376	0.00808
3703.13417	0.00846
3701.07459	0.00884
3699.01500	0.00866
3696.95542	0.00800
3694.89583	0.00733
3692.83625	0.00706
3690.77666	0.00750
3688.71708	0.00818
3686.65749	0.00853
3684.59791	0.00839
3682.53832	0.00825
3680.47874	0.00851
3678.41915	0.00886
3676.35957	0.00925
3674.29998	0.00958
3672.24040	0.00966
3670.18081	0.00946
3668.12123	0.00891
3666.06164	0.00850
3664.00206	0.00870
3661.94247	0.00900
3659.88289	0.00894
3657.82330	0.00873
3655.76371	0.00859
3653.70413	0.00860
3651.64454	0.00885
3649.58496	0.00927
3647.52537	0.00924
3645.46579	0.00854
3643.40620	0.00800
3641.34662	0.00801
3639.28703	0.00818
3637.22745	0.00843
3635.16786	0.00883
3633.10828	0.00914
3631.04869	0.00952
3628.98911	0.01034
3626.92952	0.01095
3624.86994	0.01086
3622.81035	0.01043
3620.75077	0.01008
3618.69118	0.01000
3616.63160	0.00995
3614.57201	0.00997
3612.51243	0.00986
3610.45284	0.00919
3608.39326	0.00843
3606.33367	0.00820
3604.27408	0.00867
3602.21450	0.00937
3600.15491	0.00997
3598.09533	0.01043
3596.03574	0.01077
3593.97616	0.01089
3591.91657	0.01091
3589.85699	0.01080
3587.79740	0.01093
3585.73782	0.01091
3583.67823	0.01074
3581.61865	0.01094
3579.55906	0.01155
3577.49948	0.01196
3575.43989	0.01190
3573.38031	0.01163
3571.32072	0.01155
3569.26114	0.01177
3567.20155	0.01181
3565.14197	0.01134
3563.08238	0.01092
3561.02280	0.01108
3558.96321	0.01156
3556.90363	0.01210
3554.84404	0.01252
3552.78446	0.01252
3550.72487	0.01232
3548.66528	0.01235
3546.60570	0.01251
3544.54611	0.01266
3542.48653	0.01308
3540.42694	0.01375
3538.36736	0.01431
3536.30777	0.01451
3534.24819	0.01447
3532.18860	0.01432
3530.12902	0.01393
3528.06943	0.01345
3526.00985	0.01319
3523.95026	0.01344
3521.89068	0.01443
3519.83109	0.01542
3517.77151	0.01530
3515.71192	0.01449
3513.65234	0.01399
3511.59275	0.01388
3509.53317	0.01422
3507.47358	0.01527
3505.41400	0.01625
3503.35441	0.01639
3501.29483	0.01626
3499.23524	0.01636
3497.17565	0.01643
3495.11607	0.01632
3493.05648	0.01628
3490.99690	0.01636
3488.93731	0.01653
3486.87773	0.01688
3484.81814	0.01756
3482.75856	0.01827
3480.69897	0.01828
3478.63939	0.01758
3476.57980	0.01705
3474.52022	0.01725
3472.46063	0.01770
3470.40105	0.01780
3468.34146	0.01779
3466.28188	0.01810
3464.22229	0.01839
3462.16271	0.01816
3460.10312	0.01762
3458.04354	0.01735
3455.98395	0.01775
3453.92437	0.01853
3451.86478	0.01921
3449.80520	0.01983
3447.74561	0.02031
3445.68603	0.02032
3443.62644	0.02009
3441.56685	0.02014
3439.50727	0.02034
3437.44768	0.02026
3435.38810	0.01997
3433.32851	0.01998
3431.26893	0.02046
3429.20934	0.02105
3427.14976	0.02158
3425.09017	0.02194
3423.03059	0.02213
3420.97100	0.02226
3418.91142	0.02216
3416.85183	0.02194
3414.79225	0.02202
3412.73266	0.02252
3410.67308	0.02307
3408.61349	0.02331
3406.55391	0.02363
3404.49432	0.02444
3402.43474	0.02521
3400.37515	0.02557
3398.31557	0.02595
3396.25598	0.02618
3394.19640	0.02588
3392.13681	0.02556
3390.07723	0.02530
3388.01764	0.02507
3385.95805	0.02523
3383.89847	0.02557
3381.83888	0.02576
3379.77930	0.02590
3377.71971	0.02619
3375.66013	0.02661
3373.60054	0.02684
3371.54096	0.02690
3369.48137	0.02723
3367.42179	0.02787
3365.36220	0.02843
3363.30262	0.02879
3361.24303	0.02920
3359.18345	0.02980
3357.12386	0.03030
3355.06428	0.03053
3353.00469	0.03066
3350.94511	0.03091
3348.88552	0.03112
3346.82594	0.03112
3344.76635	0.03116
3342.70677	0.03156
3340.64718	0.03220
3338.58760	0.03278
3336.52801	0.03339
3334.46842	0.03381
3332.40884	0.03411
3330.34925	0.03474
3328.28967	0.03534
3326.23008	0.03535
3324.17050	0.03494
3322.11091	0.03473
3320.05133	0.03514
3317.99174	0.03574
3315.93216	0.03616
3313.87257	0.03656
3311.81299	0.03683
3309.75340	0.03710
3307.69382	0.03762
3305.63423	0.03793
3303.57465	0.03796
3301.51506	0.03837
3299.45548	0.03917
3297.39589	0.03961
3295.33631	0.03938
3293.27672	0.03897
3291.21714	0.03900
3289.15755	0.03932
3287.09797	0.03948
3285.03838	0.03949
3282.97880	0.03942
3280.91921	0.03928
3278.85962	0.03926
3276.80004	0.03913
3274.74045	0.03883
3272.68087	0.03880
3270.62128	0.03891
3268.56170	0.03856
3266.50211	0.03766
3264.44253	0.03661
3262.38294	0.03589
3260.32336	0.03565
3258.26377	0.03572
3256.20419	0.03557
3254.14460	0.03471
3252.08502	0.03368
3250.02543	0.03314
3247.96585	0.03283
3245.90626	0.03258
3243.84668	0.03242
3241.78709	0.03217
3239.72751	0.03178
3237.66792	0.03139
3235.60834	0.03118
3233.54875	0.03108
3231.48917	0.03098
3229.42958	0.03094
3227.36999	0.03072
3225.31041	0.03008
3223.25082	0.02941
3221.19124	0.02910
3219.13165	0.02883
3217.07207	0.02833
3215.01248	0.02788
3212.95290	0.02753
3210.89331	0.02740
3208.83373	0.02771
3206.77414	0.02815
3204.71456	0.02813
3202.65497	0.02771
3200.59539	0.02728
3198.53580	0.02687
3196.47622	0.02654
3194.41663	0.02645
3192.35705	0.02650
3190.29746	0.02634
3188.23788	0.02600
3186.17829	0.02543
3184.11871	0.02454
3182.05912	0.02395
3179.99954	0.02391
3177.93995	0.02377
3175.88037	0.02345
3173.82078	0.02337
3171.76119	0.02330
3169.70161	0.02290
3167.64202	0.02247
3165.58244	0.02230
3163.52285	0.02214
3161.46327	0.02183
3159.40368	0.02154
3157.34410	0.02145
3155.28451	0.02155
3153.22493	0.02159
3151.16534	0.02132
3149.10576	0.02114
3147.04617	0.02127
3144.98659	0.02120
3142.92700	0.02088
3140.86742	0.02064
3138.80783	0.02058
3136.74825	0.02061
3134.68866	0.02051
3132.62908	0.02011
3130.56949	0.01964
3128.50991	0.01936
3126.45032	0.01917
3124.39074	0.01879
3122.33115	0.01839
3120.27156	0.01836
3118.21198	0.01848
3116.15239	0.01849
3114.09281	0.01854
3112.03322	0.01864
3109.97364	0.01871
3107.91405	0.01895
3105.85447	0.01896
3103.79488	0.01851
3101.73530	0.01856
3099.67571	0.01903
3097.61613	0.01888
3095.55654	0.01838
3093.49696	0.01822
3091.43737	0.01808
3089.37779	0.01791
3087.31820	0.01827
3085.25862	0.01887
3083.19903	0.01902
3081.13945	0.01879
3079.07986	0.01849
3077.02028	0.01824
3074.96069	0.01815
3072.90111	0.01837
3070.84152	0.01881
3068.78194	0.01920
3066.72235	0.01941
3064.66276	0.01939
3062.60318	0.01901
3060.54359	0.01838
3058.48401	0.01789
3056.42442	0.01783
3054.36484	0.01811
3052.30525	0.01844
3050.24567	0.01849
3048.18608	0.01822
3046.12650	0.01804
3044.06691	0.01794
3042.00733	0.01765
3039.94774	0.01731
3037.88816	0.01709
3035.82857	0.01706
3033.76899	0.01703
3031.70940	0.01692
3029.64982	0.01685
3027.59023	0.01669
3025.53065	0.01650
3023.47106	0.01645
3021.41148	0.01634
3019.35189	0.01607
3017.29231	0.01571
3015.23272	0.01541
3013.17313	0.01527
3011.11355	0.01508
3009.05396	0.01501
3006.99438	0.01538
3004.93479	0.01578
3002.87521	0.01584
3000.81562	0.01574
2998.75604	0.01574
2996.69645	0.01602
2994.63687	0.01639
2992.57728	0.01647
2990.51770	0.01646
2988.45811	0.01670
2986.39853	0.01690
2984.33894	0.01697
2982.27936	0.01716
2980.21977	0.01762
2978.16019	0.01819
2976.10060	0.01841
2974.04102	0.01846
2971.98143	0.01862
2969.92185	0.01878
2967.86226	0.01908
2965.80268	0.01941
2963.74309	0.01953
2961.68351	0.01979
2959.62392	0.02015
2957.56433	0.02037
2955.50475	0.02049
2953.44516	0.02031
2951.38558	0.01989
2949.32599	0.01965
2947.26641	0.01951
2945.20682	0.01937
2943.14724	0.01961
2941.08765	0.02018
2939.02807	0.02085
2936.96848	0.02176
2934.90890	0.02266
2932.84931	0.02328
2930.78973	0.02368
2928.73014	0.02399
2926.67056	0.02439
2924.61097	0.02482
2922.55139	0.02511
2920.49180	0.02532
2918.43222	0.02538
2916.37263	0.02497
2914.31305	0.02403
2912.25346	0.02291
2910.19388	0.02183
2908.13429	0.02100
2906.07471	0.02040
2904.01512	0.01961
2901.95553	0.01886
2899.89595	0.01864
2897.83636	0.01854
2895.77678	0.01818
2893.71719	0.01775
2891.65761	0.01754
2889.59802	0.01746
2887.53844	0.01730
2885.47885	0.01730
2883.41927	0.01755
2881.35968	0.01757
2879.30010	0.01738
2877.24051	0.01757
2875.18093	0.01787
2873.12134	0.01772
2871.06176	0.01733
2869.00217	0.01698
2866.94259	0.01670
2864.88300	0.01671
2862.82342	0.01697
2860.76383	0.01702
2858.70425	0.01694
2856.64466	0.01736
2854.58508	0.01826
2852.52549	0.01910
2850.46590	0.01947
2848.40632	0.01902
2846.34673	0.01779
2844.28715	0.01657
2842.22756	0.01576
2840.16798	0.01502
2838.10839	0.01437
2836.04881	0.01405
2833.98922	0.01396
2831.92964	0.01397
2829.87005	0.01388
2827.81047	0.01347
2825.75088	0.01297
2823.69130	0.01266
2821.63171	0.01242
2819.57213	0.01228
2817.51254	0.01240
2815.45296	0.01255
2813.39337	0.01246
2811.33379	0.01230
2809.27420	0.01223
2807.21462	0.01215
2805.15503	0.01199
2803.09545	0.01190
2801.03586	0.01189
2798.97628	0.01179
2796.91669	0.01163
2794.85710	0.01154
2792.79752	0.01159
2790.73793	0.01178
2788.67835	0.01188
2786.61876	0.01165
2784.55918	0.01127
2782.49959	0.01104
2780.44001	0.01103
2778.38042	0.01117
2776.32084	0.01136
2774.26125	0.01149
2772.20167	0.01139
2770.14208	0.01109
2768.08250	0.01083
2766.02291	0.01056
2763.96333	0.01028
2761.90374	0.01032
2759.84416	0.01058
2757.78457	0.01051
2755.72499	0.01031
2753.66540	0.01037
2751.60582	0.01048
2749.54623	0.01047
2747.48665	0.01044
2745.42706	0.01041
2743.36747	0.01038
2741.30789	0.01040
2739.24830	0.01035
2737.18872	0.01018
2735.12913	0.01008
2733.06955	0.01025
2731.00996	0.01037
2728.95038	0.01020
2726.89079	0.01003
2724.83121	0.01000
2722.77162	0.00994
2720.71204	0.00986
2718.65245	0.00984
2716.59287	0.00982
2714.53328	0.00964
2712.47370	0.00947
2710.41411	0.00957
2708.35453	0.00968
2706.29494	0.00963
2704.23536	0.00948
2702.17577	0.00935
2700.11619	0.00940
2698.05660	0.00960
2695.99702	0.00970
2693.93743	0.00950
2691.87785	0.00919
2689.81826	0.00897
2687.75867	0.00886
2685.69909	0.00889
2683.63950	0.00891
2681.57992	0.00893
2679.52033	0.00903
2677.46075	0.00910
2675.40116	0.00908
2673.34158	0.00909
2671.28199	0.00914
2669.22241	0.00913
2667.16282	0.00910
2665.10324	0.00905
2663.04365	0.00894
2660.98407	0.00905
2658.92448	0.00937
2656.86490	0.00949
2654.80531	0.00951
2652.74573	0.00968
2650.68614	0.00987
2648.62656	0.00974
2646.56697	0.00943
2644.50739	0.00948
2642.44780	0.00968
2640.38822	0.00962
2638.32863	0.00957
2636.26904	0.00974
2634.20946	0.00976
2632.14987	0.00951
2630.09029	0.00928
2628.03070	0.00923
2625.97112	0.00941
2623.91153	0.00959
2621.85195	0.00956
2619.79236	0.00942
2617.73278	0.00926
2615.67319	0.00929
2613.61361	0.00945
2611.55402	0.00938
2609.49444	0.00928
2607.43485	0.00926
2605.37527	0.00906
2603.31568	0.00870
2601.25610	0.00838
2599.19651	0.00828
2597.13693	0.00842
2595.07734	0.00878
2593.01776	0.00914
2590.95817	0.00930
2588.89859	0.00912
2586.83900	0.00856
2584.77942	0.00824
2582.71983	0.00851
2580.66024	0.00871
2578.60066	0.00834
2576.54107	0.00791
2574.48149	0.00807
2572.42190	0.00863
2570.36232	0.00878
2568.30273	0.00839
2566.24315	0.00815
2564.18356	0.00833
2562.12398	0.00871
2560.06439	0.00899
2558.00481	0.00891
2555.94522	0.00861
2553.88564	0.00853
2551.82605	0.00871
2549.76647	0.00850
2547.70688	0.00788
2545.64730	0.00759
2543.58771	0.00777
2541.52813	0.00815
2539.46854	0.00823
2537.40896	0.00791
2535.34937	0.00761
2533.28979	0.00757
2531.23020	0.00766
2529.17062	0.00743
2527.11103	0.00705
2525.05144	0.00708
2522.99186	0.00735
2520.93227	0.00752
2518.87269	0.00766
2516.81310	0.00762
2514.75352	0.00728
2512.69393	0.00704
2510.63435	0.00709
2508.57476	0.00716
2506.51518	0.00707
2504.45559	0.00670
2502.39601	0.00644
2500.33642	0.00674
2498.27684	0.00703
2496.21725	0.00696
2494.15767	0.00704
2492.09808	0.00733
2490.03850	0.00749
2487.97891	0.00736
2485.91933	0.00727
2483.85974	0.00731
2481.80016	0.00698
2479.74057	0.00662
2477.68099	0.00689
2475.62140	0.00719
2473.56181	0.00706
2471.50223	0.00679
2469.44264	0.00652
2467.38306	0.00647
2465.32347	0.00681
2463.26389	0.00714
2461.20430	0.00698
2459.14472	0.00676
2457.08513	0.00695
2455.02555	0.00719
2452.96596	0.00696
2450.90638	0.00656
2448.84679	0.00655
2446.78721	0.00688
2444.72762	0.00706
2442.66804	0.00684
2440.60845	0.00657
2438.54887	0.00668
2436.48928	0.00684
2434.42970	0.00670
2432.37011	0.00641
2430.31053	0.00632
2428.25094	0.00639
2426.19136	0.00615
2424.13177	0.00596
2422.07219	0.00641
2420.01260	0.00680
2417.95301	0.00654
2415.89343	0.00626
2413.83384	0.00621
2411.77426	0.00623
2409.71467	0.00636
2407.65509	0.00623
2405.59550	0.00591
2403.53592	0.00592
2401.47633	0.00608
2399.41675	0.00605
2397.35716	0.00599
2395.29758	0.00618
2393.23799	0.00638
2391.17841	0.00621
2389.11882	0.00574
2387.05924	0.00546
2384.99965	0.00574
2382.94007	0.00636
2380.88048	0.00685
2378.82090	0.00698
2376.76131	0.00765
2374.70173	0.00649
2372.64214	0.00580
2370.58256	0.00679
2368.52297	0.00574
2366.46338	0.00695
2364.40380	0.00645
2362.34421	0.00531
2360.28463	0.00797
2358.22504	0.00632
2356.16546	0.00498
2354.10587	0.00448
2352.04629	0.00580
2349.98670	0.01372
2347.92712	0.01118
2345.86753	0.00479
2343.80795	0.00648
2341.74836	0.00550
2339.68878	0.00783
2337.62919	0.00861
2335.56961	0.00578
2333.51002	0.00707
2331.45044	0.00591
2329.39085	0.00808
2327.33127	0.00690
2325.27168	0.00889
2323.21210	0.00852
2321.15251	0.00773
2319.09293	0.00727
2317.03334	0.00697
2314.97376	0.00670
2312.91417	0.00638
2310.85458	0.00618
2308.79500	0.00613
2306.73541	0.00573
2304.67583	0.00593
2302.61624	0.00641
2300.55666	0.00687
2298.49707	0.00688
2296.43749	0.00664
2294.37790	0.00637
2292.31832	0.00691
2290.25873	0.00742
2288.19915	0.00709
2286.13956	0.00634
2284.07998	0.00623
2282.02039	0.00620
2279.96081	0.00592
2277.90122	0.00594
2275.84164	0.00620
2273.78205	0.00622
2271.72247	0.00605
2269.66288	0.00632
2267.60330	0.00673
2265.54371	0.00692
2263.48413	0.00691
2261.42454	0.00699
2259.36495	0.00700
2257.30537	0.00675
2255.24578	0.00629
2253.18620	0.00593
2251.12661	0.00596
2249.06703	0.00618
2247.00744	0.00621
2244.94786	0.00677
2242.88827	0.00736
2240.82869	0.00675
2238.76910	0.00594
2236.70952	0.00617
2234.64993	0.00652
2232.59035	0.00645
2230.53076	0.00640
2228.47118	0.00641
2226.41159	0.00619
2224.35201	0.00575
2222.29242	0.00523
2220.23284	0.00494
2218.17325	0.00523
2216.11367	0.00568
2214.05408	0.00594
2211.99450	0.00613
2209.93491	0.00606
2207.87533	0.00563
2205.81574	0.00563
2203.75615	0.00636
2201.69657	0.00681
2199.63698	0.00665
2197.57740	0.00621
2195.51781	0.00553
2193.45823	0.00527
2191.39864	0.00558
2189.33906	0.00527
2187.27947	0.00459
2185.21989	0.00458
2183.16030	0.00485
2181.10072	0.00489
2179.04113	0.00479
2176.98155	0.00469
2174.92196	0.00462
2172.86238	0.00463
2170.80279	0.00503
2168.74321	0.00611
2166.68362	0.00746
2164.62404	0.00837
2162.56445	0.00872
2160.50487	0.00806
2158.44528	0.00557
2156.38570	0.00316
2154.32611	0.00348
2152.26652	0.00530
2150.20694	0.00580
2148.14735	0.00485
2146.08777	0.00427
2144.02818	0.00474
2141.96860	0.00517
2139.90901	0.00470
2137.84943	0.00414
2135.78984	0.00393
2133.73026	0.00361
2131.67067	0.00349
2129.61109	0.00371
2127.55150	0.00388
2125.49192	0.00405
2123.43233	0.00424
2121.37275	0.00428
2119.31316	0.00428
2117.25358	0.00435
2115.19399	0.00482
2113.13441	0.00571
2111.07482	0.00625
2109.01524	0.00618
2106.95565	0.00605
2104.89607	0.00598
2102.83648	0.00569
2100.77690	0.00547
2098.71731	0.00561
2096.65772	0.00549
2094.59814	0.00514
2092.53855	0.00497
2090.47897	0.00509
2088.41938	0.00534
2086.35980	0.00571
2084.30021	0.00618
2082.24063	0.00659
2080.18104	0.00681
2078.12146	0.00652
2076.06187	0.00592
2074.00229	0.00568
2071.94270	0.00588
2069.88312	0.00622
2067.82353	0.00595
2065.76395	0.00515
2063.70436	0.00533
2061.64478	0.00603
2059.58519	0.00557
2057.52561	0.00450
2055.46602	0.00432
2053.40644	0.00499
2051.34685	0.00554
2049.28727	0.00587
2047.22768	0.00649
2045.16810	0.00654
2043.10851	0.00566
2041.04892	0.00561
2038.98934	0.00660
2036.92975	0.00681
2034.87017	0.00601
2032.81058	0.00507
2030.75100	0.00407
2028.69141	0.00311
2026.63183	0.00294
2024.57224	0.00366
2022.51266	0.00446
2020.45307	0.00527
2018.39349	0.00604
2016.33390	0.00619
2014.27432	0.00606
2012.21473	0.00614
2010.15515	0.00621
2008.09556	0.00577
2006.03598	0.00492
2003.97639	0.00458
2001.91681	0.00472
1999.85722	0.00465
1997.79764	0.00467
1995.73805	0.00477
1993.67847	0.00444
1991.61888	0.00397
1989.55929	0.00432
1987.49971	0.00500
1985.44012	0.00453
1983.38054	0.00391
1981.32095	0.00457
1979.26137	0.00517
1977.20178	0.00449
1975.14220	0.00388
1973.08261	0.00389
1971.02303	0.00372
1968.96344	0.00394
1966.90386	0.00454
1964.84427	0.00428
1962.78469	0.00339
1960.72510	0.00261
1958.66552	0.00228
1956.60593	0.00257
1954.54635	0.00294
1952.48676	0.00318
1950.42718	0.00342
1948.36759	0.00385
1946.30801	0.00428
1944.24842	0.00401
1942.18884	0.00349
1940.12925	0.00350
1938.06967	0.00378
1936.01008	0.00386
1933.95049	0.00363
1931.89091	0.00333
1929.83132	0.00333
1927.77174	0.00353
1925.71215	0.00360
1923.65257	0.00360
1921.59298	0.00368
1919.53340	0.00358
1917.47381	0.00330
1915.41423	0.00320
1913.35464	0.00346
1911.29506	0.00385
1909.23547	0.00390
1907.17589	0.00347
1905.11630	0.00283
1903.05672	0.00256
1900.99713	0.00272
1898.93755	0.00274
1896.87796	0.00275
1894.81838	0.00310
1892.75879	0.00348
1890.69921	0.00360
1888.63962	0.00352
1886.58004	0.00340
1884.52045	0.00321
1882.46086	0.00297
1880.40128	0.00298
1878.34169	0.00316
1876.28211	0.00320
1874.22252	0.00325
1872.16294	0.00338
1870.10335	0.00343
1868.04377	0.00342
1865.98418	0.00335
1863.92460	0.00323
1861.86501	0.00322
1859.80543	0.00324
1857.74584	0.00309
1855.68626	0.00300
1853.62667	0.00298
1851.56709	0.00283
1849.50750	0.00289
1847.44792	0.00344
1845.38833	0.00395
1843.32875	0.00381
1841.26916	0.00330
1839.20958	0.00294
1837.14999	0.00282
1835.09041	0.00274
1833.03082	0.00266
1830.97124	0.00279
1828.91165	0.00303
1826.85206	0.00312
1824.79248	0.00316
1822.73289	0.00328
1820.67331	0.00329
1818.61372	0.00304
1816.55414	0.00281
1814.49455	0.00280
1812.43497	0.00284
1810.37538	0.00277
1808.31580	0.00271
1806.25621	0.00280
1804.19663	0.00301
1802.13704	0.00313
1800.07746	0.00310
1798.01787	0.00308
1795.95829	0.00312
1793.89870	0.00318
1791.83912	0.00327
1789.77953	0.00324
1787.71995	0.00319
1785.66036	0.00332
1783.60078	0.00344
1781.54119	0.00344
1779.48161	0.00341
1777.42202	0.00333
1775.36243	0.00330
1773.30285	0.00349
1771.24326	0.00376
1769.18368	0.00383
1767.12409	0.00378
1765.06451	0.00387
1763.00492	0.00407
1760.94534	0.00418
1758.88575	0.00423
1756.82617	0.00443
1754.76658	0.00468
1752.70700	0.00491
1750.64741	0.00525
1748.58783	0.00559
1746.52824	0.00567
1744.46866	0.00563
1742.40907	0.00584
1740.34949	0.00627
1738.28990	0.00664
1736.23032	0.00690
1734.17073	0.00708
1732.11115	0.00706
1730.05156	0.00691
1727.99198	0.00685
1725.93239	0.00694
1723.87281	0.00716
1721.81322	0.00746
1719.75363	0.00785
1717.69405	0.00822
1715.63446	0.00845
1713.57488	0.00860
1711.51529	0.00885
1709.45571	0.00941
1707.39612	0.01039
1705.33654	0.01164
1703.27695	0.01293
1701.21737	0.01450
1699.15778	0.01617
1697.09820	0.01737
1695.03861	0.01821
1692.97903	0.01899
1690.91944	0.01997
1688.85986	0.02120
1686.80027	0.02266
1684.74069	0.02439
1682.68110	0.02597
1680.62152	0.02705
1678.56193	0.02813
1676.50235	0.02963
1674.44276	0.03133
1672.38318	0.03287
1670.32359	0.03446
1668.26401	0.03621
1666.20442	0.03773
1664.14483	0.03906
1662.08525	0.04044
1660.02566	0.04174
1657.96608	0.04283
1655.90649	0.04378
1653.84691	0.04457
1651.78732	0.04474
1649.72774	0.04433
1647.66815	0.04380
1645.60857	0.04318
1643.54898	0.04238
1641.48940	0.04156
1639.42981	0.04093
1637.37023	0.04047
1635.31064	0.03978
1633.25106	0.03877
1631.19147	0.03778
1629.13189	0.03691
1627.07230	0.03595
1625.01272	0.03478
1622.95313	0.03345
1620.89355	0.03209
1618.83396	0.03076
1616.77438	0.02927
1614.71479	0.02760
1612.65520	0.02605
1610.59562	0.02467
1608.53603	0.02335
1606.47645	0.02208
1604.41686	0.02093
1602.35728	0.01987
1600.29769	0.01891
1598.23811	0.01810
1596.17852	0.01745
1594.11894	0.01686
1592.05935	0.01631
1589.99977	0.01583
1587.94018	0.01546
1585.88060	0.01521
1583.82101	0.01519
1581.76143	0.01537
1579.70184	0.01563
1577.64226	0.01595
1575.58267	0.01627
1573.52309	0.01650
1571.46350	0.01683
1569.40392	0.01739
1567.34433	0.01803
1565.28475	0.01870
1563.22516	0.01955
1561.16558	0.02089
1559.10599	0.02276
1557.04640	0.02432
1554.98682	0.02536
1552.92723	0.02649
1550.86765	0.02780
1548.80806	0.02903
1546.74848	0.03010
1544.68889	0.03113
1542.62931	0.03216
1540.56972	0.03306
1538.51014	0.03354
1536.45055	0.03358
1534.39097	0.03347
1532.33138	0.03328
1530.27180	0.03307
1528.21221	0.03299
1526.15263	0.03295
1524.09304	0.03287
1522.03346	0.03288
1519.97387	0.03299
1517.91429	0.03304
1515.85470	0.03277
1513.79512	0.03214
1511.73553	0.03137
1509.67595	0.03062
1507.61636	0.02972
1505.55677	0.02849
1503.49719	0.02729
1501.43760	0.02638
1499.37802	0.02558
1497.31843	0.02455
1495.25885	0.02331
1493.19926	0.02223
1491.13968	0.02135
1489.08009	0.02040
1487.02051	0.01931
1484.96092	0.01832
1482.90134	0.01766
1480.84175	0.01731
1478.78217	0.01720
1476.72258	0.01728
1474.66300	0.01749
1472.60341	0.01773
1470.54383	0.01779
1468.48424	0.01779
1466.42466	0.01799
1464.36507	0.01834
1462.30549	0.01862
1460.24590	0.01893
1458.18632	0.01933
1456.12673	0.01953
1454.06715	0.01938
1452.00756	0.01920
1449.94797	0.01917
1447.88839	0.01915
1445.82880	0.01900
1443.76922	0.01879
1441.70963	0.01863
1439.65005	0.01848
1437.59046	0.01826
1435.53088	0.01789
1433.47129	0.01750
1431.41171	0.01727
1429.35212	0.01721
1427.29254	0.01722
1425.23295	0.01726
1423.17337	0.01741
1421.11378	0.01766
1419.05420	0.01793
1416.99461	0.01812
1414.93503	0.01821
1412.87544	0.01826
1410.81586	0.01829
1408.75627	0.01831
1406.69669	0.01833
1404.63710	0.01837
1402.57752	0.01844
1400.51793	0.01853
1398.45834	0.01865
1396.39876	0.01870
1394.33917	0.01868
1392.27959	0.01870
1390.22000	0.01880
1388.16042	0.01890
1386.10083	0.01893
1384.04125	0.01890
1381.98166	0.01892
1379.92208	0.01897
1377.86249	0.01898
1375.80291	0.01895
1373.74332	0.01885
1371.68374	0.01863
1369.62415	0.01843
1367.56457	0.01833
1365.50498	0.01826
1363.44540	0.01809
1361.38581	0.01778
1359.32623	0.01749
1357.26664	0.01739
1355.20706	0.01739
1353.14747	0.01736
1351.08789	0.01731
1349.02830	0.01731
1346.96872	0.01737
1344.90913	0.01746
1342.84954	0.01761
1340.78996	0.01774
1338.73037	0.01774
1336.67079	0.01770
1334.61120	0.01774
1332.55162	0.01776
1330.49203	0.01769
1328.43245	0.01761
1326.37286	0.01757
1324.31328	0.01754
1322.25369	0.01746
1320.19411	0.01744
1318.13452	0.01753
1316.07494	0.01757
1314.01535	0.01756
1311.95577	0.01751
1309.89618	0.01736
1307.83660	0.01717
1305.77701	0.01698
1303.71743	0.01684
1301.65784	0.01676
1299.59826	0.01662
1297.53867	0.01639
1295.47909	0.01612
1293.41950	0.01585
1291.35991	0.01565
1289.30033	0.01554
1287.24074	0.01548
1285.18116	0.01543
1283.12157	0.01545
1281.06199	0.01551
1279.00240	0.01549
1276.94282	0.01547
1274.88323	0.01554
1272.82365	0.01564
1270.76406	0.01574
1268.70448	0.01586
1266.64489	0.01599
1264.58531	0.01620
1262.52572	0.01645
1260.46614	0.01664
1258.40655	0.01670
1256.34697	0.01667
1254.28738	0.01661
1252.22780	0.01656
1250.16821	0.01659
1248.10863	0.01672
1246.04904	0.01689
1243.98946	0.01704
1241.92987	0.01712
1239.87029	0.01713
1237.81070	0.01713
1235.75111	0.01717
1233.69153	0.01719
1231.63194	0.01716
1229.57236	0.01712
1227.51277	0.01712
1225.45319	0.01707
1223.39360	0.01687
1221.33402	0.01663
1219.27443	0.01649
1217.21485	0.01631
1215.15526	0.01598
1213.09568	0.01557
1211.03609	0.01522
1208.97651	0.01498
1206.91692	0.01487
1204.85734	0.01477
1202.79775	0.01456
1200.73817	0.01432
1198.67858	0.01420
1196.61900	0.01409
1194.55941	0.01388
1192.49983	0.01367
1190.44024	0.01358
1188.38066	0.01360
1186.32107	0.01362
1184.26149	0.01357
1182.20190	0.01359
1180.14231	0.01379
1178.08273	0.01410
1176.02314	0.01437
1173.96356	0.01455
1171.90397	0.01473
1169.84439	0.01490
1167.78480	0.01504
1165.72522	0.01513
1163.66563	0.01511
1161.60605	0.01510
1159.54646	0.01511
1157.48688	0.01490
1155.42729	0.01450
1153.36771	0.01422
1151.30812	0.01412
1149.24854	0.01396
1147.18895	0.01370
1145.12937	0.01347
1143.06978	0.01330
1141.01020	0.01322
1138.95061	0.01323
1136.89103	0.01329
1134.83144	0.01336
1132.77186	0.01345
1130.71227	0.01358
1128.65268	0.01365
1126.59310	0.01372
1124.53351	0.01383
1122.47393	0.01393
1120.41434	0.01406
1118.35476	0.01421
1116.29517	0.01433
1114.23559	0.01446
1112.17600	0.01460
1110.11642	0.01472
1108.05683	0.01486
1105.99725	0.01506
1103.93766	0.01528
1101.87808	0.01536
1099.81849	0.01535
1097.75891	0.01537
1095.69932	0.01538
1093.63974	0.01537
1091.58015	0.01543
1089.52057	0.01547
1087.46098	0.01551
1085.40140	0.01562
1083.34181	0.01576
1081.28223	0.01592
1079.22264	0.01611
1077.16306	0.01618
1075.10347	0.01616
1073.04388	0.01629
1070.98430	0.01651
1068.92471	0.01662
1066.86513	0.01661
1064.80554	0.01665
1062.74596	0.01681
1060.68637	0.01702
1058.62679	0.01717
1056.56720	0.01728
1054.50762	0.01735
1052.44803	0.01734
1050.38845	0.01733
1048.32886	0.01744
1046.26928	0.01756
1044.20969	0.01762
1042.15011	0.01771
1040.09052	0.01774
1038.03094	0.01770
1035.97135	0.01762
1033.91177	0.01755
1031.85218	0.01746
1029.79260	0.01731
1027.73301	0.01712
1025.67343	0.01692
1023.61384	0.01675
1021.55425	0.01667
1019.49467	0.01660
1017.43508	0.01648
1015.37550	0.01626
1013.31591	0.01602
1011.25633	0.01583
1009.19674	0.01563
1007.13716	0.01538
1005.07757	0.01521
1003.01799	0.01510
1000.95840	0.01496
998.89882	0.01478
996.83923	0.01461
994.77965	0.01444
992.72006	0.01422
990.66048	0.01399
988.60089	0.01383
986.54131	0.01376
984.48172	0.01366
982.42214	0.01352
980.36255	0.01334
978.30297	0.01312
976.24338	0.01284
974.18380	0.01257
972.12421	0.01239
970.06463	0.01226
968.00504	0.01217
965.94545	0.01218
963.88587	0.01218
961.82628	0.01208
959.76670	0.01197
957.70711	0.01181
955.64753	0.01153
953.58794	0.01126
951.52836	0.01109
949.46877	0.01093
947.40919	0.01077
945.34960	0.01068
943.29002	0.01064
941.23043	0.01054
939.17085	0.01048
937.11126	0.01049
935.05168	0.01040
932.99209	0.01023
930.93251	0.00999
928.87292	0.00975
926.81334	0.00965
924.75375	0.00969
922.69417	0.00975
920.63458	0.00976
918.57500	0.00965
916.51541	0.00949
914.45582	0.00948
912.39624	0.00951
910.33665	0.00942
908.27707	0.00934
906.21748	0.00934
904.15790	0.00931
902.09831	0.00923
900.03873	0.00919
897.97914	0.00923
895.91956	0.00925
893.85997	0.00924
891.80039	0.00918
889.74080	0.00903
887.68122	0.00892
885.62163	0.00887
883.56205	0.00882
881.50246	0.00873
879.44288	0.00855
877.38329	0.00840
875.32371	0.00843
873.26412	0.00849
871.20454	0.00837
869.14495	0.00818
867.08537	0.00806
865.02578	0.00787
862.96620	0.00765
860.90661	0.00759
858.84702	0.00768
856.78744	0.00776
854.72785	0.00776
852.66827	0.00766
850.60868	0.00748
848.54910	0.00747
846.48951	0.00767
844.42993	0.00783
842.37034	0.00781
840.31076	0.00772
838.25117	0.00768
836.19159	0.00772
834.13200	0.00774
832.07242	0.00776
830.01283	0.00790
827.95325	0.00808
825.89366	0.00819
823.83408	0.00816
821.77449	0.00805
819.71491	0.00798
817.65532	0.00794
815.59574	0.00799
813.53615	0.00815
811.47657	0.00828
809.41698	0.00828
807.35740	0.00830
805.29781	0.00842
803.23822	0.00848
801.17864	0.00850
799.11905	0.00866
797.05947	0.00873
794.99988	0.00860
792.94030	0.00848
790.88071	0.00848
788.82113	0.00860
786.76154	0.00872
784.70196	0.00883
782.64237	0.00886
780.58279	0.00885
778.52320	0.00893
776.46362	0.00906
774.40403	0.00912
772.34445	0.00904
770.28486	0.00892
768.22528	0.00885
766.16569	0.00889
764.10611	0.00906
762.04652	0.00919
759.98694	0.00914
757.92735	0.00907
755.86777	0.00910
753.80818	0.00918
751.74859	0.00922
749.68901	0.00920
747.62942	0.00918
745.56984	0.00918
743.51025	0.00919
741.45067	0.00916
739.39108	0.00925
737.33150	0.00945
735.27191	0.00949
733.21233	0.00940
731.15274	0.00936
729.09316	0.00933
727.03357	0.00935
724.97399	0.00958
722.91440	0.00996
720.85482	0.00996
718.79523	0.01040
716.73565	0.01021
714.67606	0.01019
712.61648	0.01037
710.55689	0.01054
708.49731	0.01075
706.43772	0.01091
704.37814	0.01098
702.31855	0.01112
700.25897	0.01139
698.19938	0.01153
696.13979	0.01150
694.08021	0.01155
692.02062	0.01170
689.96104	0.01183
687.90145	0.01194
685.84187	0.01197
683.78228	0.01186
681.72270	0.01180
679.66311	0.01191
677.60353	0.01205
675.54394	0.01206
673.48436	0.01220
671.42477	0.01503
669.36519	0.01719
667.30560	0.00781
665.24602	0.01531
663.18643	0.01321
661.12685	0.01193
659.06726	0.01205
657.00768	0.01218
654.94809	0.01232
652.88851	0.01236
650.82892	0.01230
648.76934	0.01205
646.70975	0.01208
644.65016	0.01189
642.59058	0.01180
640.53099	0.01194
638.47141	0.01199
636.41182	0.01190
634.35224	0.01183
632.29265	0.01181
630.23307	0.01190
628.17348	0.01208
626.11390	0.01216
624.05431	0.01203
621.99473	0.01196
619.93514	0.01205
617.87556	0.01222
615.81597	0.01236
613.75639	0.01231
611.69680	0.01203
609.63722	0.01182
607.57763	0.01199
605.51805	0.01233
603.45846	0.01240
601.39888	0.01225
599.33929	0.01211
597.27971	0.01205
595.22012	0.01204
593.16054	0.01203
591.10095	0.01198
589.04136	0.01186
586.98178	0.01179
584.92219	0.01189
582.86261	0.01201
580.80302	0.01193
578.74344	0.01181
576.68385	0.01176
574.62427	0.01173
572.56468	0.01175
570.50510	0.01182
568.44551	0.01194
566.38593	0.01209
564.32634	0.01218
562.26676	0.01216
560.20717	0.01210
558.14759	0.01197
556.08800	0.01179
554.02842	0.01185
551.96883	0.01209
549.90925	0.01220
547.84966	0.01214
545.79008	0.01197
543.73049	0.01173
541.67091	0.01156
539.61132	0.01154
537.55173	0.01162
535.49215	0.01173
533.43256	0.01179
531.37298	0.01175
529.31339	0.01156
527.25381	0.01148
525.19422	0.01169
523.13464	0.01198
521.07505	0.01205
519.01547	0.01165
516.95588	0.01102
514.89630	0.01062
512.83671	0.01046
510.77713	0.01043
508.71754	0.01062
506.65796	0.01092
504.59837	0.01105
502.53879	0.01101
500.47920	0.01108
498.41962	0.01121
496.36003	0.01113
494.30045	0.01084
492.24086	0.01056
490.18128	0.01046
488.12169	0.01053
486.06211	0.01060
484.00252	0.01057
481.94293	0.01045
479.88335	0.01045
477.82376	0.01053
475.76418	0.01054
473.70459	0.01061
471.64501	0.01068
469.58542	0.01054
467.52584	0.01043
465.46625	0.01058
463.40667	0.01069
461.34708	0.01041
459.28750	0.00993
457.22791	0.00968
455.16833	0.00977
453.10874	0.01004
451.04916	0.01020
448.98957	0.01012
446.92999	0.00998
444.87040	0.00973
442.81082	0.00958
440.75123	0.00974
438.69165	0.00997
436.63206	0.01003
434.57248	0.01000
432.51289	0.00982
430.45330	0.00949
428.39372	0.00938
426.33413	0.00963
424.27455	0.00980
422.21496	0.00966
420.15538	0.00943
418.09579	0.00939
416.03621	0.00973
413.97662	0.01008
411.91704	0.00995
409.85745	0.00962
407.79787	0.00934
405.73828	0.00888
403.67870	0.00842
401.61911	0.00841
399.55953	0.00881
