3997.66060,0.97528
3995.60101,0.97548
3993.54142,0.97536
3991.48183,0.97537
3989.42224,0.97546
3987.36265,0.97544
3985.30307,0.97549
3983.24348,0.97555
3981.18389,0.97535
3979.12430,0.97517
3977.06471,0.97536
3975.00513,0.97582
3972.94554,0.97627
3970.88595,0.97624
3968.82636,0.97594
3966.76677,0.97585
3964.70719,0.97581
3962.64760,0.97580
3960.58801,0.97604
3958.52842,0.97619
3956.46883,0.97610
3954.40924,0.97591
3952.34966,0.97577
3950.29007,0.97592
3948.23048,0.97602
3946.17089,0.97593
3944.11130,0.97586
3942.05172,0.97548
3939.99213,0.97509
3937.93254,0.97518
3935.87295,0.97521
3933.81336,0.97516
3931.75377,0.97527
3929.69419,0.97516
3927.63460,0.97486
3925.57501,0.97486
3923.51542,0.97518
3921.45583,0.97532
3919.39625,0.97513
3917.33666,0.97504
3915.27707,0.97529
3913.21748,0.97553
3911.15789,0.97556
3909.09831,0.97558
3907.03872,0.97568
3904.97913,0.97578
3902.91954,0.97585
3900.85995,0.97578
3898.80036,0.97561
3896.74078,0.97564
3894.68119,0.97584
3892.62160,0.97593
3890.56201,0.97588
3888.50242,0.97576
3886.44284,0.97562
3884.38325,0.97560
3882.32366,0.97567
3880.26407,0.97584
3878.20448,0.97597
3876.14489,0.97562
3874.08531,0.97510
3872.02572,0.97508
3869.96613,0.97538
3867.90654,0.97533
3865.84695,0.97518
3863.78737,0.97534
3861.72778,0.97551
3859.66819,0.97549
3857.60860,0.97562
3855.54901,0.97607
3853.48943,0.97614
3851.42984,0.97558
3849.37025,0.97535
3847.31066,0.97540
3845.25107,0.97561
3843.19148,0.97591
3841.13190,0.97624
3839.07231,0.97656
3837.01272,0.97668
3834.95313,0.97650
3832.89354,0.97615
3830.83396,0.97559
3828.77437,0.97502
3826.71478,0.97477
3824.65519,0.97489
3822.59560,0.97521
3820.53601,0.97558
3818.47643,0.97571
3816.41684,0.97577
3814.35725,0.97591
3812.29766,0.97572
3810.23807,0.97535
3808.17849,0.97514
3806.11890,0.97522
3804.05931,0.97564
3801.99972,0.97606
3799.94013,0.97569
3797.88055,0.97510
3795.82096,0.97513
3793.76137,0.97534
3791.70178,0.97530
3789.64219,0.97522
3787.58260,0.97527
3785.52302,0.97546
3783.46343,0.97583
3781.40384,0.97616
3779.34425,0.97622
3777.28466,0.97604
3775.22508,0.97581
3773.16549,0.97577
3771.10590,0.97610
3769.04631,0.97638
3766.98672,0.97615
3764.92713,0.97593
3762.86755,0.97604
3760.80796,0.97609
3758.74837,0.97597
3756.68878,0.97584
3754.62919,0.97594
3752.56961,0.97616
3750.51002,0.97613
3748.45043,0.97580
3746.39084,0.97554
3744.33125,0.97580
3742.27167,0.97611
3740.21208,0.97606
3738.15249,0.97613
3736.09290,0.97614
3734.03331,0.97586
3731.97372,0.97584
3729.91414,0.97600
3727.85455,0.97608
3725.79496,0.97613
3723.73537,0.97596
3721.67578,0.97568
3719.61620,0.97565
3717.55661,0.97569
3715.49702,0.97571
3713.43743,0.97585
3711.37784,0.97630
3709.31825,0.97658
3707.25867,0.97628
3705.19908,0.97599
3703.13949,0.97577
3701.07990,0.97537
3699.02031,0.97523
3696.96073,0.97554
3694.90114,0.97588
3692.84155,0.97594
3690.78196,0.97606
3688.72237,0.97644
3686.66279,0.97649
3684.60320,0.97621
3682.54361,0.97590
3680.48402,0.97568
3678.42443,0.97568
3676.36484,0.97577
3674.30526,0.97557
3672.24567,0.97552
3670.18608,0.97605
3668.12649,0.97657
3666.06690,0.97658
3664.00732,0.97631
3661.94773,0.97606
3659.88814,0.97586
3657.82855,0.97557
3655.76896,0.97527
3653.70937,0.97522
3651.64979,0.97569
3649.59020,0.97631
3647.53061,0.97594
3645.47102,0.97524
3643.41143,0.97522
3641.35185,0.97542
3639.29226,0.97531
3637.23267,0.97516
3635.17308,0.97522
3633.11349,0.97527
3631.05391,0.97526
3628.99432,0.97555
3626.93473,0.97593
3624.87514,0.97565
3622.81555,0.97500
3620.75596,0.97481
3618.69638,0.97517
3616.63679,0.97531
3614.57720,0.97515
3612.51761,0.97515
3610.45802,0.97522
3608.39844,0.97517
3606.33885,0.97546
3604.27926,0.97592
3602.21967,0.97611
3600.16008,0.97604
3598.10049,0.97577
3596.04091,0.97523
3593.98132,0.97480
3591.92173,0.97501
3589.86214,0.97553
3587.80255,0.97545
3585.74297,0.97486
3583.68338,0.97460
3581.62379,0.97480
3579.56420,0.97522
3577.50461,0.97548
3575.44503,0.97548
3573.38544,0.97541
3571.32585,0.97540
3569.26626,0.97554
3567.20667,0.97582
3565.14708,0.97607
3563.08750,0.97605
3561.02791,0.97575
3558.96832,0.97544
3556.90873,0.97534
3554.84914,0.97524
3552.78956,0.97503
3550.72997,0.97482
3548.67038,0.97484
3546.61079,0.97509
3544.55120,0.97515
3542.49161,0.97526
3540.43203,0.97558
3538.37244,0.97557
3536.31285,0.97530
3534.25326,0.97528
3532.19367,0.97547
3530.13409,0.97542
3528.07450,0.97485
3526.01491,0.97424
3523.95532,0.97430
3521.89573,0.97456
3519.83615,0.97446
3517.77656,0.97429
3515.71697,0.97422
3513.65738,0.97410
3511.59779,0.97409
3509.53820,0.97437
3507.47862,0.97464
3505.41903,0.97468
3503.35944,0.97456
3501.29985,0.97446
3499.24026,0.97430
3497.18068,0.97389
3495.12109,0.97360
3493.06150,0.97387
3491.00191,0.97436
3488.94232,0.97454
3486.88273,0.97451
3484.82315,0.97431
3482.76356,0.97383
3480.70397,0.97341
3478.64438,0.97340
3476.58479,0.97370
3474.52521,0.97395
3472.46562,0.97395
3470.40603,0.97382
3468.34644,0.97380
3466.28685,0.97379
3464.22727,0.97377
3462.16768,0.97391
3460.10809,0.97419
3458.04850,0.97445
3455.98891,0.97450
3453.92932,0.97435
3451.86974,0.97437
3449.81015,0.97447
3447.75056,0.97411
3445.69097,0.97347
3443.63138,0.97334
3441.57180,0.97392
3439.51221,0.97440
3437.45262,0.97413
3435.39303,0.97362
3433.33344,0.97345
3431.27385,0.97363
3429.21427,0.97386
3427.15468,0.97385
3425.09509,0.97382
3423.03550,0.97390
3420.97591,0.97402
3418.91633,0.97428
3416.85674,0.97430
3414.79715,0.97401
3412.73756,0.97379
3410.67797,0.97363
3408.61839,0.97368
3406.55880,0.97400
3404.49921,0.97424
3402.43962,0.97411
3400.38003,0.97372
3398.32044,0.97352
3396.26086,0.97365
3394.20127,0.97379
3392.14168,0.97385
3390.08209,0.97400
3388.02250,0.97418
3385.96292,0.97422
3383.90333,0.97402
3381.84374,0.97381
3379.78415,0.97376
3377.72456,0.97384
3375.66497,0.97391
3373.60539,0.97398
3371.54580,0.97417
3369.48621,0.97418
3367.42662,0.97376
3365.36703,0.97340
3363.30745,0.97341
3361.24786,0.97341
3359.18827,0.97331
3357.12868,0.97328
3355.06909,0.97340
3353.00951,0.97365
3350.94992,0.97372
3348.89033,0.97355
3346.83074,0.97345
3344.77115,0.97334
3342.71156,0.97310
3340.65198,0.97295
3338.59239,0.97301
3336.53280,0.97327
3334.47321,0.97368
3332.41362,0.97394
3330.35404,0.97391
3328.29445,0.97371
3326.23486,0.97365
3324.17527,0.97383
3322.11568,0.97376
3320.05609,0.97343
3317.99651,0.97342
3315.93692,0.97368
3313.87733,0.97372
3311.81774,0.97360
3309.75815,0.97367
3307.69857,0.97373
3305.63898,0.97362
3303.57939,0.97358
3301.51980,0.97367
3299.46021,0.97364
3297.40063,0.97346
3295.34104,0.97345
3293.28145,0.97368
3291.22186,0.97385
3289.16227,0.97392
3287.10268,0.97392
3285.04310,0.97381
3282.98351,0.97372
3280.92392,0.97372
3278.86433,0.97370
3276.80474,0.97378
3274.74516,0.97398
3272.68557,0.97398
3270.62598,0.97365
3268.56639,0.97323
3266.50680,0.97316
3264.44721,0.97350
3262.38763,0.97386
3260.32804,0.97387
3258.26845,0.97362
3256.20886,0.97358
3254.14927,0.97367
3252.08969,0.97364
3250.03010,0.97360
3247.97051,0.97348
3245.91092,0.97352
3243.85133,0.97383
3241.79175,0.97404
3239.73216,0.97401
3237.67257,0.97383
3235.61298,0.97390
3233.55339,0.97415
3231.49380,0.97403
3229.43422,0.97381
3227.37463,0.97387
3225.31504,0.97412
3223.25545,0.97446
3221.19586,0.97463
3219.13628,0.97445
3217.07669,0.97415
3215.01710,0.97404
3212.95751,0.97406
3210.89792,0.97400
3208.83833,0.97395
3206.77875,0.97407
3204.71916,0.97413
3202.65957,0.97396
3200.59998,0.97376
3198.54039,0.97349
3196.48081,0.97321
3194.42122,0.97326
3192.36163,0.97341
3190.30204,0.97345
3188.24245,0.97346
3186.18287,0.97344
3184.12328,0.97347
3182.06369,0.97350
3180.00410,0.97361
3177.94451,0.97382
3175.88492,0.97374
3173.82534,0.97351
3171.76575,0.97368
3169.70616,0.97402
3167.64657,0.97415
3165.58698,0.97411
3163.52740,0.97393
3161.46781,0.97358
3159.40822,0.97325
3157.34863,0.97340
3155.28904,0.97374
3153.22945,0.97378
3151.16987,0.97374
3149.11028,0.97395
3147.05069,0.97416
3144.99110,0.97401
3142.93151,0.97376
3140.87193,0.97363
3138.81234,0.97348
3136.75275,0.97342
3134.69316,0.97369
3132.63357,0.97394
3130.57399,0.97381
3128.51440,0.97375
3126.45481,0.97393
3124.39522,0.97388
3122.33563,0.97364
3120.27604,0.97354
3118.21646,0.97336
3116.15687,0.97301
3114.09728,0.97252
3112.03769,0.97176
3109.97810,0.97080
3107.91852,0.96966
3105.85893,0.96843
3103.79934,0.96765
3101.73975,0.96759
3099.68016,0.96791
3097.62057,0.96821
3095.56099,0.96829
3093.50140,0.96794
3091.44181,0.96656
3089.38222,0.96366
3087.32263,0.95961
3085.26305,0.95541
3083.20346,0.95246
3081.14387,0.95195
3079.08428,0.95367
3077.02469,0.95618
3074.96511,0.95804
3072.90552,0.95873
3070.84593,0.95835
3068.78634,0.95670
3066.72675,0.95344
3064.66716,0.94883
3062.60758,0.94416
3060.54799,0.94123
3058.48840,0.94121
3056.42881,0.94379
3054.36922,0.94766
3052.30964,0.95154
3050.25005,0.95461
3048.19046,0.95680
3046.13087,0.95832
3044.07128,0.95890
3042.01169,0.95826
3039.95211,0.95659
3037.89252,0.95383
3035.83293,0.94935
3033.77334,0.94259
3031.71375,0.93332
3029.65417,0.92257
3027.59458,0.91281
3025.53499,0.90707
3023.47540,0.90801
3021.41581,0.91579
3019.35623,0.92709
3017.29664,0.93806
3015.23705,0.94660
3013.17746,0.95236
3011.11787,0.95584
3009.05828,0.95751
3006.99870,0.95766
3004.93911,0.95675
3002.87952,0.95561
3000.81993,0.95527
2998.76034,0.95653
2996.70076,0.95904
2994.64117,0.96160
2992.58158,0.96359
2990.52199,0.96506
2988.46240,0.96624
2986.40281,0.96723
2984.34323,0.96772
2982.28364,0.96761
2980.22405,0.96724
2978.16446,0.96698
2976.10487,0.96689
2974.04529,0.96676
2971.98570,0.96651
2969.92611,0.96606
2967.86652,0.96558
2965.80693,0.96533
2963.74735,0.96486
2961.68776,0.96395
2959.62817,0.96290
2957.56858,0.96171
2955.50899,0.96030
2953.44940,0.95846
2951.38982,0.95603
2949.33023,0.95336
2947.27064,0.95058
2945.21105,0.94743
2943.15146,0.94370
2941.09188,0.93938
2939.03229,0.93431
2936.97270,0.92836
2934.91311,0.92199
2932.85352,0.91551
2930.79393,0.90896
2928.73435,0.90285
2926.67476,0.89775
2924.61517,0.89387
2922.55558,0.89152
2920.49599,0.89084
2918.43641,0.89149
2916.37682,0.89315
2914.31723,0.89568
2912.25764,0.89908
2910.19805,0.90311
2908.13847,0.90727
2906.07888,0.91138
2904.01929,0.91566
2901.95970,0.92013
2899.90011,0.92467
2897.84052,0.92902
2895.78094,0.93270
2893.72135,0.93557
2891.66176,0.93791
2889.60217,0.93996
2887.54258,0.94177
2885.48300,0.94331
2883.42341,0.94459
2881.36382,0.94583
2879.30423,0.94726
2877.24464,0.94870
2875.18505,0.94985
2873.12547,0.95063
2871.06588,0.95116
2869.00629,0.95157
2866.94670,0.95172
2864.88711,0.95127
2862.82753,0.94990
2860.76794,0.94764
2858.70835,0.94495
2856.64876,0.94212
2854.58917,0.93925
2852.52959,0.93665
2850.47000,0.93475
2848.41041,0.93391
2846.35082,0.93457
2844.29123,0.93707
2842.23164,0.94113
2840.17206,0.94583
2838.11247,0.95022
2836.05288,0.95383
2833.99329,0.95661
2831.93370,0.95879
2829.87412,0.96038
2827.81453,0.96140
2825.75494,0.96223
2823.69535,0.96297
2821.63576,0.96346
2819.57617,0.96365
2817.51659,0.96373
2815.45700,0.96384
2813.39741,0.96402
2811.33782,0.96433
2809.27823,0.96463
2807.21865,0.96478
2805.15906,0.96486
2803.09947,0.96511
2801.03988,0.96548
2798.98029,0.96587
2796.92071,0.96612
2794.86112,0.96610
2792.80153,0.96610
2790.74194,0.96628
2788.68235,0.96645
2786.62276,0.96642
2784.56318,0.96636
2782.50359,0.96633
2780.44400,0.96621
2778.38441,0.96631
2776.32482,0.96674
2774.26524,0.96712
2772.20565,0.96723
2770.14606,0.96725
2768.08647,0.96732
2766.02688,0.96732
2763.96729,0.96734
2761.90771,0.96744
2759.84812,0.96754
2757.78853,0.96757
2755.72894,0.96748
2753.66935,0.96744
2751.60977,0.96757
2749.55018,0.96770
2747.49059,0.96784
2745.43100,0.96801
2743.37141,0.96801
2741.31183,0.96779
2739.25224,0.96753
2737.19265,0.96744
2735.13306,0.96769
2733.07347,0.96815
2731.01388,0.96833
2728.95430,0.96816
2726.89471,0.96803
2724.83512,0.96797
2722.77553,0.96778
2720.71594,0.96765
2718.65636,0.96770
2716.59677,0.96783
2714.53718,0.96787
2712.47759,0.96774
2710.41800,0.96765
2708.35841,0.96778
2706.29883,0.96794
2704.23924,0.96803
2702.17965,0.96804
2700.12006,0.96788
2698.06047,0.96769
2696.00089,0.96771
2693.94130,0.96787
2691.88171,0.96806
2689.82212,0.96828
2687.76253,0.96830
2685.70295,0.96818
2683.64336,0.96820
2681.58377,0.96826
2679.52418,0.96827
2677.46459,0.96829
2675.40500,0.96833
2673.34542,0.96825
2671.28583,0.96813
2669.22624,0.96807
2667.16665,0.96811
2665.10706,0.96820
2663.04748,0.96820
2660.98789,0.96798
2658.92830,0.96766
2656.86871,0.96737
2654.80912,0.96724
2652.74953,0.96733
2650.68995,0.96748
2648.63036,0.96754
2646.57077,0.96751
2644.51118,0.96740
2642.45159,0.96726
2640.39201,0.96730
2638.33242,0.96746
2636.27283,0.96750
2634.21324,0.96744
2632.15365,0.96733
2630.09407,0.96720
2628.03448,0.96730
2625.97489,0.96761
2623.91530,0.96777
2621.85571,0.96772
2619.79612,0.96778
2617.73654,0.96787
2615.67695,0.96779
2613.61736,0.96789
2611.55777,0.96818
2609.49818,0.96831
2607.43860,0.96828
2605.37901,0.96821
2603.31942,0.96814
2601.25983,0.96807
2599.20024,0.96803
2597.14065,0.96820
2595.08107,0.96855
2593.02148,0.96892
2590.96189,0.96928
2588.90230,0.96942
2586.84271,0.96937
2584.78313,0.96938
2582.72354,0.96936
2580.66395,0.96920
2578.60436,0.96916
2576.54477,0.96935
2574.48519,0.96945
2572.42560,0.96939
2570.36601,0.96947
2568.30642,0.96967
2566.24683,0.96979
2564.18724,0.96982
2562.12766,0.96990
2560.06807,0.96986
2558.00848,0.96947
2555.94889,0.96912
2553.88930,0.96916
2551.82972,0.96943
2549.77013,0.96967
2547.71054,0.96992
2545.65095,0.97031
2543.59136,0.97043
2541.53177,0.97005
2539.47219,0.96977
2537.41260,0.96995
2535.35301,0.97021
2533.29342,0.97016
2531.23383,0.96996
2529.17425,0.96972
2527.11466,0.96937
2525.05507,0.96922
2522.99548,0.96951
2520.93589,0.96985
2518.87631,0.96982
2516.81672,0.96957
2514.75713,0.96948
2512.69754,0.96977
2510.63795,0.97013
2508.57836,0.97027
2506.51878,0.97037
2504.45919,0.97045
2502.39960,0.97052
2500.34001,0.97058
2498.28042,0.97033
2496.22084,0.96997
2494.16125,0.96987
2492.10166,0.96992
2490.04207,0.97000
2487.98248,0.97006
2485.92289,0.97008
2483.86331,0.97018
2481.80372,0.97013
2479.74413,0.96992
2477.68454,0.96994
2475.62495,0.97022
2473.56537,0.97015
2471.50578,0.96971
2469.44619,0.96960
2467.38660,0.96978
2465.32701,0.97004
2463.26743,0.97023
2461.20784,0.97022
2459.14825,0.97025
2457.08866,0.97040
2455.02907,0.97046
2452.96948,0.97028
2450.90990,0.97006
2448.85031,0.96996
2446.79072,0.97001
2444.73113,0.97011
2442.67154,0.97005
2440.61196,0.97011
2438.55237,0.97031
2436.49278,0.97043
2434.43319,0.97031
2432.37360,0.97007
2430.31401,0.97010
2428.25443,0.97039
2426.19484,0.97064
2424.13525,0.97073
2422.07566,0.97055
2420.01607,0.97030
2417.95649,0.97041
2415.89690,0.97070
2413.83731,0.97083
2411.77772,0.97060
2409.71813,0.97003
2407.65855,0.96979
2405.59896,0.96999
2403.53937,0.97019
2401.47978,0.97047
2399.42019,0.97081
2397.36060,0.97080
2395.30102,0.97050
2393.24143,0.97026
2391.18184,0.97000
2389.12225,0.96972
2387.06266,0.96964
2385.00308,0.96969
2382.94349,0.96983
2380.88390,0.97004
2378.82431,0.97024
2376.76472,0.97030
2374.70513,0.97020
2372.64555,0.97004
2370.58596,0.96999
2368.52637,0.97016
2366.46678,0.97016
2364.40719,0.96994
2362.34761,0.96956
2360.28802,0.96879
2358.22843,0.96837
2356.16884,0.96853
2354.10925,0.96864
2352.04967,0.96883
2349.99008,0.96925
2347.93049,0.96944
2345.87090,0.96900
2343.81131,0.96837
2341.75172,0.96826
2339.69214,0.96818
2337.63255,0.96779
2335.57296,0.96758
2333.51337,0.96788
2331.45378,0.96860
2329.39420,0.96891
2327.33461,0.96813
2325.27502,0.96724
2323.21543,0.96745
2321.15584,0.96808
2319.09625,0.96809
2317.03667,0.96802
2314.97708,0.96834
2312.91749,0.96871
2310.85790,0.96866
2308.79831,0.96841
2306.73873,0.96853
2304.67914,0.96907
2302.61955,0.96941
2300.55996,0.96927
2298.50037,0.96917
2296.44079,0.96932
2294.38120,0.96937
2292.32161,0.96915
2290.26202,0.96886
2288.20243,0.96872
2286.14284,0.96870
2284.08326,0.96891
2282.02367,0.96946
2279.96408,0.96995
2277.90449,0.97015
2275.84490,0.97028
2273.78532,0.97028
2271.72573,0.97011
2269.66614,0.97002
2267.60655,0.97020
2265.54696,0.97062
2263.48737,0.97081
2261.42779,0.97063
2259.36820,0.97043
2257.30861,0.97043
2255.24902,0.97100
2253.18943,0.97173
2251.12985,0.97161
2249.07026,0.97117
2247.01067,0.97167
2244.95108,0.97277
2242.89149,0.97312
2240.83191,0.97229
2238.77232,0.97123
2236.71273,0.97085
2234.65314,0.97099
2232.59355,0.97119
2230.53396,0.97137
2228.47438,0.97180
2226.41479,0.97243
2224.35520,0.97258
2222.29561,0.97189
2220.23602,0.97112
2218.17644,0.97107
2216.11685,0.97179
2214.05726,0.97263
2211.99767,0.97260
2209.93808,0.97204
2207.87849,0.97167
2205.81891,0.97151
2203.75932,0.97190
2201.69973,0.97253
2199.64014,0.97291
2197.58055,0.97309
2195.52097,0.97328
2193.46138,0.97344
2191.40179,0.97346
2189.34220,0.97396
2187.28261,0.97475
2185.22303,0.97461
2183.16344,0.97406
2181.10385,0.97451
2179.04426,0.97554
2176.98467,0.97633
2174.92508,0.97649
2172.86550,0.97567
2170.80591,0.97493
2168.74632,0.97524
2166.68673,0.97572
2164.62714,0.97564
2162.56756,0.97543
2160.50797,0.97594
2158.44838,0.97691
2156.38879,0.97730
2154.32920,0.97763
2152.26961,0.97772
2150.21003,0.97706
2148.15044,0.97621
2146.09085,0.97574
2144.03126,0.97620
2141.97167,0.97630
2139.91209,0.97491
2137.85250,0.97371
2135.79291,0.97398
2133.73332,0.97460
2131.67373,0.97445
2129.61415,0.97415
2127.55456,0.97389
2125.49497,0.97325
2123.43538,0.97284
2121.37579,0.97284
2119.31620,0.97273
2117.25662,0.97242
2115.19703,0.97203
2113.13744,0.97210
2111.07785,0.97259
2109.01826,0.97271
2106.95868,0.97237
2104.89909,0.97213
2102.83950,0.97240
2100.77991,0.97308
2098.72032,0.97357
2096.66073,0.97326
2094.60115,0.97259
2092.54156,0.97220
2090.48197,0.97207
2088.42238,0.97198
2086.36279,0.97169
2084.30321,0.97162
2082.24362,0.97232
2080.18403,0.97308
2078.12444,0.97297
2076.06485,0.97259
2074.00527,0.97278
2071.94568,0.97333
2069.88609,0.97379
2067.82650,0.97381
2065.76691,0.97341
2063.70732,0.97348
2061.64774,0.97411
2059.58815,0.97423
2057.52856,0.97358
2055.46897,0.97259
2053.40938,0.97170
2051.34980,0.97168
2049.29021,0.97279
2047.23062,0.97386
2045.17103,0.97401
2043.11144,0.97406
2041.05185,0.97467
2038.99227,0.97544
2036.93268,0.97574
2034.87309,0.97577
2032.81350,0.97581
2030.75391,0.97610
2028.69433,0.97672
2026.63474,0.97733
2024.57515,0.97810
2022.51556,0.97838
2020.45597,0.97796
2018.39639,0.97773
2016.33680,0.97726
2014.27721,0.97590
2012.21762,0.97451
2010.15803,0.97446
2008.09844,0.97546
2006.03886,0.97663
2003.97927,0.97737
2001.91968,0.97665
1999.86009,0.97477
1997.80050,0.97352
1995.74092,0.97352
1993.68133,0.97403
1991.62174,0.97435
1989.56215,0.97434
1987.50256,0.97395
1985.44297,0.97305
1983.38339,0.97254
1981.32380,0.97328
1979.26421,0.97485
1977.20462,0.97638
1975.14503,0.97710
1973.08545,0.97681
1971.02586,0.97614
1968.96627,0.97565
1966.90668,0.97556
1964.84709,0.97554
1962.78751,0.97476
1960.72792,0.97357
1958.66833,0.97227
1956.60874,0.97074
1954.54915,0.96971
1952.48956,0.96925
1950.42998,0.96850
1948.37039,0.96742
1946.31080,0.96643
1944.25121,0.96582
1942.19162,0.96569
1940.13204,0.96581
1938.07245,0.96588
1936.01286,0.96609
1933.95327,0.96696
1931.89368,0.96846
1929.83409,0.96958
1927.77451,0.96972
1925.71492,0.96981
1923.65533,0.97040
1921.59574,0.97114
1919.53615,0.97167
1917.47657,0.97157
1915.41698,0.97112
1913.35739,0.97104
1911.29780,0.97126
1909.23821,0.97149
1907.17863,0.97157
1905.11904,0.97116
1903.05945,0.97052
1900.99986,0.97032
1898.94027,0.97033
1896.88068,0.96991
1894.82110,0.96926
1892.76151,0.96886
1890.70192,0.96863
1888.64233,0.96813
1886.58274,0.96732
1884.52316,0.96644
1882.46357,0.96559
1880.40398,0.96519
1878.34439,0.96533
1876.28480,0.96512
1874.22521,0.96399
1872.16563,0.96269
1870.10604,0.96224
1868.04645,0.96265
1865.98686,0.96329
1863.92727,0.96378
1861.86769,0.96452
1859.80810,0.96565
1857.74851,0.96671
1855.68892,0.96735
1853.62933,0.96756
1851.56975,0.96774
1849.51016,0.96821
1847.45057,0.96883
1845.39098,0.96930
1843.33139,0.96944
1841.27180,0.96939
1839.21222,0.96940
1837.15263,0.96943
1835.09304,0.96950
1833.03345,0.96952
1830.97386,0.96935
1828.91428,0.96894
1826.85469,0.96838
1824.79510,0.96781
1822.73551,0.96715
1820.67592,0.96648
1818.61633,0.96609
1816.55675,0.96566
1814.49716,0.96486
1812.43757,0.96400
1810.37798,0.96341
1808.31839,0.96283
1806.25881,0.96206
1804.19922,0.96122
1802.13963,0.96051
1800.08004,0.96034
1798.02045,0.96093
1795.96087,0.96198
1793.90128,0.96318
1791.84169,0.96440
1789.78210,0.96520
1787.72251,0.96564
1785.66292,0.96612
1783.60334,0.96654
1781.54375,0.96668
1779.48416,0.96641
1777.42457,0.96594
1775.36498,0.96567
1773.30540,0.96562
1771.24581,0.96560
1769.18622,0.96563
1767.12663,0.96563
1765.06704,0.96550
1763.00745,0.96512
1760.94787,0.96446
1758.88828,0.96373
1756.82869,0.96294
1754.76910,0.96224
1752.70951,0.96167
1750.64993,0.96095
1748.59034,0.96020
1746.53075,0.95974
1744.47116,0.95953
1742.41157,0.95940
1740.35199,0.95933
1738.29240,0.95940
1736.23281,0.95953
1734.17322,0.95981
1732.11363,0.96040
1730.05404,0.96077
1727.99446,0.96077
1725.93487,0.96084
1723.87528,0.96122
1721.81569,0.96166
1719.75610,0.96203
1717.69652,0.96235
1715.63693,0.96254
1713.57734,0.96265
1711.51775,0.96277
1709.45816,0.96291
1707.39857,0.96304
1705.33899,0.96298
1703.27940,0.96294
1701.21981,0.96324
1699.16022,0.96371
1697.10063,0.96405
1695.04105,0.96402
1692.98146,0.96379
1690.92187,0.96381
1688.86228,0.96396
1686.80269,0.96392
1684.74311,0.96370
1682.68352,0.96340
1680.62393,0.96326
1678.56434,0.96310
1676.50475,0.96284
1674.44516,0.96262
1672.38558,0.96245
1670.32599,0.96234
1668.26640,0.96236
1666.20681,0.96247
1664.14722,0.96262
1662.08764,0.96277
1660.02805,0.96301
1657.96846,0.96342
1655.90887,0.96389
1653.84928,0.96424
1651.78969,0.96436
1649.73011,0.96459
1647.67052,0.96498
1645.61093,0.96525
1643.55134,0.96541
1641.49175,0.96567
1639.43217,0.96584
1637.37258,0.96583
1635.31299,0.96581
1633.25340,0.96576
1631.19381,0.96558
1629.13423,0.96530
1627.07464,0.96512
1625.01505,0.96503
1622.95546,0.96489
1620.89587,0.96471
1618.83628,0.96443
1616.77670,0.96367
1614.71711,0.96238
1612.65752,0.96059
1610.59793,0.95704
1608.53834,0.94951
1606.47876,0.93690
1604.41917,0.92083
1602.35958,0.90663
1600.29999,0.90201
1598.24040,0.90926
1596.18081,0.92253
1594.12123,0.93471
1592.06164,0.94289
1590.00205,0.94737
1587.94246,0.94818
1585.88287,0.94512
1583.82329,0.94118
1581.76370,0.94162
1579.70411,0.94677
1577.64452,0.95281
1575.58493,0.95746
1573.52535,0.95994
1571.46576,0.96128
1569.40617,0.96252
1567.34658,0.96348
1565.28699,0.96385
1563.22740,0.96407
1561.16782,0.96444
1559.10823,0.96450
1557.04864,0.96397
1554.98905,0.96353
1552.92946,0.96307
1550.86988,0.96252
1548.81029,0.96185
1546.75070,0.96122
1544.69111,0.96074
1542.63152,0.96051
1540.57193,0.96066
1538.51235,0.96105
1536.45276,0.96162
1534.39317,0.96254
1532.33358,0.96354
1530.27399,0.96415
1528.21441,0.96454
1526.15482,0.96478
1524.09523,0.96506
1522.03564,0.96551
1519.97605,0.96591
1517.91647,0.96596
1515.85688,0.96564
1513.79729,0.96532
1511.73770,0.96511
1509.67811,0.96476
1507.61852,0.96383
1505.55894,0.96199
1503.49935,0.95940
1501.43976,0.95434
1499.38017,0.94141
1497.32058,0.90845
1495.26100,0.85618
1493.20141,0.81755
1491.14182,0.81664
1489.08223,0.85232
1487.02264,0.89156
1484.96305,0.91591
1482.90347,0.93084
1480.84388,0.94065
1478.78429,0.94670
1476.72470,0.95029
1474.66511,0.95242
1472.60553,0.95370
1470.54594,0.95434
1468.48635,0.95446
1466.42676,0.95410
1464.36717,0.95287
1462.30759,0.95058
1460.24800,0.94564
1458.18841,0.92758
1456.12882,0.88142
1454.06923,0.83291
1452.00964,0.80678
1449.95006,0.80745
1447.89047,0.82623
1445.83088,0.84654
1443.77129,0.86337
1441.71170,0.87842
1439.65212,0.89125
1437.59253,0.90356
1435.53294,0.91630
1433.47335,0.92617
1431.41376,0.93365
1429.35417,0.93983
1427.29459,0.94414
1425.23500,0.94688
1423.17541,0.94875
1421.11582,0.95012
1419.05623,0.95127
1416.99665,0.95206
1414.93706,0.95253
1412.87747,0.95302
1410.81788,0.95359
1408.75829,0.95407
1406.69871,0.95438
1404.63912,0.95460
1402.57953,0.95476
1400.51994,0.95478
1398.46035,0.95453
1396.40076,0.95390
1394.34118,0.95283
1392.28159,0.95137
1390.22200,0.94947
1388.16241,0.94694
1386.10282,0.94408
1384.04324,0.94153
1381.98365,0.93910
1379.92406,0.93654
1377.86447,0.93397
1375.80488,0.93167
1373.74529,0.93003
1371.68571,0.92945
1369.62612,0.92957
1367.56653,0.92989
1365.50694,0.93041
1363.44735,0.93101
1361.38777,0.93167
1359.32818,0.93260
1357.26859,0.93370
1355.20900,0.93460
1353.14941,0.93506
1351.08983,0.93526
1349.03024,0.93550
1346.97065,0.93598
1344.91106,0.93672
1342.85147,0.93767
1340.79188,0.93880
1338.73230,0.93979
1336.67271,0.93987
1334.61312,0.93884
1332.55353,0.93718
1330.49394,0.93553
1328.43436,0.93467
1326.37477,0.93494
1324.31518,0.93575
1322.25559,0.93663
1320.19600,0.93727
1318.13641,0.93726
1316.07683,0.93668
1314.01724,0.93602
1311.95765,0.93564
1309.89806,0.93586
1307.83847,0.93672
1305.77889,0.93785
1303.71930,0.93895
1301.65971,0.94000
1299.60012,0.94095
1297.54053,0.94169
1295.48095,0.94221
1293.42136,0.94251
1291.36177,0.94283
1289.30218,0.94339
1287.24259,0.94392
1285.18300,0.94416
1283.12342,0.94428
1281.06383,0.94452
1279.00424,0.94500
1276.94465,0.94580
1274.88506,0.94682
1272.82548,0.94789
1270.76589,0.94880
1268.70630,0.94954
1266.64671,0.95024
1264.58712,0.95083
1262.52753,0.95117
1260.46795,0.95128
1258.40836,0.95133
1256.34877,0.95139
1254.28918,0.95137
1252.22959,0.95121
1250.17001,0.95101
1248.11042,0.95083
1246.05083,0.95060
1243.99124,0.95048
1241.93165,0.95063
1239.87207,0.95099
1237.81248,0.95142
1235.75289,0.95164
1233.69330,0.95160
1231.63371,0.95148
1229.57412,0.95133
1227.51454,0.95116
1225.45495,0.95116
1223.39536,0.95127
1221.33577,0.95127
1219.27618,0.95127
1217.21660,0.95136
1215.15701,0.95128
1213.09742,0.95086
1211.03783,0.95015
1208.97824,0.94918
1206.91865,0.94810
1204.85907,0.94687
1202.79948,0.94535
1200.73989,0.94368
1198.68030,0.94220
1196.62071,0.94135
1194.56113,0.94107
1192.50154,0.94082
1190.44195,0.94034
1188.38236,0.93941
1186.32277,0.93732
1184.26319,0.93381
1182.20360,0.93058
1180.14401,0.93023
1178.08442,0.93359
1176.02483,0.93869
1173.96524,0.94292
1171.90566,0.94539
1169.84607,0.94671
1167.78648,0.94738
1165.72689,0.94739
1163.66730,0.94665
1161.60772,0.94486
1159.54813,0.94117
1157.48854,0.93574
1155.42895,0.93113
1153.36936,0.93042
1151.30977,0.93427
1149.25019,0.94023
1147.19060,0.94528
1145.13101,0.94858
1143.07142,0.95087
1141.01183,0.95258
1138.95225,0.95377
1136.89266,0.95454
1134.83307,0.95493
1132.77348,0.95515
1130.71389,0.95543
1128.65431,0.95566
1126.59472,0.95566
1124.53513,0.95539
1122.47554,0.95480
1120.41595,0.95386
1118.35636,0.95275
1116.29678,0.95165
1114.23719,0.95073
1112.17760,0.95028
1110.11801,0.95031
1108.05842,0.95058
1105.99884,0.95079
1103.93925,0.95065
1101.87966,0.95018
1099.82007,0.94969
1097.76048,0.94924
1095.70089,0.94860
1093.64131,0.94792
1091.58172,0.94727
1089.52213,0.94621
1087.46254,0.94462
1085.40295,0.94284
1083.34337,0.94078
1081.28378,0.93809
1079.22419,0.93496
1077.16460,0.93150
1075.10501,0.92744
1073.04543,0.92288
1070.98584,0.91874
1068.92625,0.91628
1066.86666,0.91661
1064.80707,0.91960
1062.74748,0.92370
1060.68790,0.92759
1058.62831,0.93098
1056.56872,0.93389
1054.50913,0.93626
1052.44954,0.93822
1050.38996,0.94012
1048.33037,0.94194
1046.27078,0.94324
1044.21119,0.94386
1042.15160,0.94394
1040.09201,0.94306
1038.03243,0.93966
1035.97284,0.93133
1033.91325,0.91683
1031.85366,0.89877
1029.79407,0.88333
1027.73449,0.87668
1025.67490,0.88088
1023.61531,0.89171
1021.55572,0.90279
1019.49613,0.91131
1017.43655,0.91769
1015.37696,0.92265
1013.31737,0.92642
1011.25778,0.92920
1009.19819,0.93085
1007.13860,0.93088
1005.07902,0.92944
1003.01943,0.92861
1000.95984,0.93063
998.90025,0.93471
996.84066,0.93833
994.78108,0.94025
992.72149,0.94089
990.66190,0.94076
988.60231,0.93976
986.54272,0.93796
984.48313,0.93592
982.42355,0.93415
980.36396,0.93307
978.30437,0.93313
976.24478,0.93431
974.18519,0.93555
972.12561,0.93549
970.06602,0.93386
968.00643,0.93142
965.94684,0.92912
963.88725,0.92821
961.82767,0.92971
959.76808,0.93315
957.70849,0.93672
955.64890,0.93908
953.58931,0.94024
951.52972,0.94070
949.47014,0.94051
947.41055,0.93969
945.35096,0.93855
943.29137,0.93782
941.23178,0.93820
939.17220,0.93954
937.11261,0.94138
935.05302,0.94363
932.99343,0.94595
930.93384,0.94764
928.87425,0.94839
926.81467,0.94852
924.75508,0.94825
922.69549,0.94736
920.63590,0.94575
918.57631,0.94330
916.51673,0.93921
914.45714,0.93292
912.39755,0.92445
910.33796,0.91459
908.27837,0.90598
906.21879,0.90195
904.15920,0.90425
902.09961,0.91189
900.04002,0.92179
897.98043,0.93100
895.92084,0.93790
893.86126,0.94246
891.80167,0.94555
889.74208,0.94765
887.68249,0.94916
885.62290,0.95047
883.56332,0.95141
881.50373,0.95200
879.44414,0.95260
877.38455,0.95328
875.32496,0.95394
873.26537,0.95449
871.20579,0.95505
869.14620,0.95566
867.08661,0.95610
865.02702,0.95619
862.96743,0.95617
860.90785,0.95640
858.84826,0.95661
856.78867,0.95626
854.72908,0.95532
852.66949,0.95372
850.60991,0.95124
848.55032,0.94794
846.49073,0.94408
844.43114,0.94054
842.37155,0.93856
840.31196,0.93877
838.25238,0.94131
836.19279,0.94556
834.13320,0.95033
832.07361,0.95428
830.01402,0.95677
827.95444,0.95813
825.89485,0.95894
823.83526,0.95955
821.77567,0.96029
819.71608,0.96098
817.65649,0.96140
815.59691,0.96162
813.53732,0.96158
811.47773,0.96149
809.41814,0.96130
807.35855,0.96068
805.29897,0.96006
803.23938,0.95984
801.17979,0.95957
799.12020,0.95878
797.06061,0.95735
795.00103,0.95525
792.94144,0.95253
790.88185,0.94906
788.82226,0.94490
786.76267,0.94035
784.70308,0.93557
782.64350,0.93022
780.58391,0.92328
778.52432,0.91396
776.46473,0.90196
774.40514,0.88676
772.34556,0.86849
770.28597,0.84784
768.22638,0.82559
766.16679,0.80339
764.10720,0.78198
762.04761,0.76027
759.98803,0.73831
757.92844,0.71894
755.86885,0.70569
753.80926,0.69958
751.74967,0.69782
749.69009,0.69699
747.63050,0.69853
745.57091,0.70895
743.51132,0.73271
741.45173,0.76593
739.39215,0.80072
737.33256,0.83303
735.27297,0.86299
733.21338,0.89019
731.15379,0.91210
729.09420,0.92726
727.03462,0.93687
724.97503,0.94280
722.91544,0.94627
720.85585,0.94813
718.79626,0.94873
716.73668,0.94737
714.67709,0.94240
712.61750,0.93069
710.55791,0.90700
708.49832,0.86531
706.43873,0.80244
704.37915,0.72031
702.31956,0.62572
700.25997,0.52845
698.20038,0.43837
696.14079,0.36814
694.08121,0.33860
692.02162,0.36378
689.96203,0.43141
687.90244,0.51171
685.84285,0.58330
683.78327,0.64123
681.72368,0.68664
679.66409,0.72065
677.60450,0.74579
675.54491,0.76549
673.48532,0.78141
671.42574,0.79349
669.36615,0.80467
667.30656,0.81850
665.24697,0.83038
663.18738,0.84034
661.12780,0.85085
659.06821,0.86144
657.00862,0.87106
654.94903,0.87918
652.88944,0.88620
650.82985,0.89210
648.77027,0.89677
646.71068,0.90022
644.65109,0.90256
642.59150,0.90421
640.53191,0.90523
638.47233,0.90520
636.41274,0.90424
634.35315,0.90232
632.29356,0.89962
630.23397,0.89737
628.17439,0.89606
626.11480,0.89492
624.05521,0.89329
621.99562,0.89115
619.93603,0.89034
617.87644,0.89261
615.81686,0.89623
613.75727,0.89946
611.69768,0.90263
609.63809,0.90546
607.57850,0.90696
605.51892,0.90743
603.45933,0.90794
601.39974,0.90819
599.34015,0.90760
597.28056,0.90669
595.22097,0.90592
593.16139,0.90519
591.10180,0.90435
589.04221,0.90328
586.98262,0.90179
584.92303,0.89972
582.86345,0.89693
580.80386,0.89280
578.74427,0.88735
576.68468,0.88090
574.62509,0.87333
572.56551,0.86546
570.50592,0.85742
568.44633,0.84854
566.38674,0.83954
564.32715,0.83178
562.26756,0.82482
560.20798,0.81731
558.14839,0.80934
556.08880,0.80158
554.02921,0.79346
551.96962,0.78368
549.91004,0.77204
547.85045,0.75862
545.79086,0.74215
543.73127,0.72258
541.67168,0.70243
539.61209,0.68541
537.55251,0.67589
535.49292,0.67781
533.43333,0.69199
531.37374,0.71452
529.31415,0.74013
527.25457,0.76575
525.19498,0.78896
523.13539,0.80765
521.07580,0.82252
519.01621,0.83399
516.95663,0.84187
514.89704,0.84766
512.83745,0.85308
510.77786,0.85924
508.71827,0.86599
506.65868,0.87196
504.59910,0.87686
502.53951,0.88159
500.47992,0.88584
498.42033,0.88915
496.36074,0.89249
494.30116,0.89649
492.24157,0.89989
490.18198,0.90168
488.12239,0.90322
486.06280,0.90546
484.00321,0.90715
481.94363,0.90809
479.88404,0.90971
477.82445,0.91144
475.76486,0.91237
473.70527,0.91395
471.64569,0.91627
469.58610,0.91726
467.52651,0.91664
465.46692,0.91559
463.40733,0.91563
461.34775,0.91735
459.28816,0.91894
457.22857,0.91930
455.16898,0.92023
453.10939,0.92218
451.04980,0.92356
448.99022,0.92383
446.93063,0.92448
444.87104,0.92599
442.81145,0.92645
440.75186,0.92608
438.69228,0.92712
436.63269,0.92916
434.57310,0.93136
432.51351,0.93306
430.45392,0.93332
428.39433,0.93351
426.33475,0.93309
424.27516,0.93044
422.21557,0.92832
420.15598,0.92847
418.09639,0.93158
416.03681,0.93629
413.97722,0.93731
411.91763,0.93411
409.85804,0.93140
407.79845,0.93145
405.73887,0.93267
403.67928,0.93291
401.61969,0.93212
399.56010,0.93348
