3997.66060,0.99603
3995.60101,0.99581
3993.54142,0.99586
3991.48183,0.99626
3989.42224,0.99659
3987.36265,0.99643
3985.30307,0.99607
3983.24348,0.99586
3981.18389,0.99578
3979.12430,0.99592
3977.06471,0.99626
3975.00513,0.99645
3972.94554,0.99638
3970.88595,0.99640
3968.82636,0.99664
3966.76677,0.99679
3964.70719,0.99678
3962.64760,0.99669
3960.58801,0.99661
3958.52842,0.99659
3956.46883,0.99662
3954.40924,0.99647
3952.34966,0.99607
3950.29007,0.99601
3948.23048,0.99631
3946.17089,0.99636
3944.11130,0.99618
3942.05172,0.99623
3939.99213,0.99648
3937.93254,0.99663
3935.87295,0.99677
3933.81336,0.99698
3931.75377,0.99709
3929.69419,0.99703
3927.63460,0.99707
3925.57501,0.99714
3923.51542,0.99702
3921.45583,0.99674
3919.39625,0.99645
3917.33666,0.99628
3915.27707,0.99617
3913.21748,0.99619
3911.15789,0.99635
3909.09831,0.99628
3907.03872,0.99600
3904.97913,0.99586
3902.91954,0.99593
3900.85995,0.99628
3898.80036,0.99653
3896.74078,0.99642
3894.68119,0.99627
3892.62160,0.99625
3890.56201,0.99633
3888.50242,0.99639
3886.44284,0.99637
3884.38325,0.99635
3882.32366,0.99628
3880.26407,0.99613
3878.20448,0.99626
3876.14489,0.99671
3874.08531,0.99712
3872.02572,0.99725
3869.96613,0.99723
3867.90654,0.99717
3865.84695,0.99693
3863.78737,0.99648
3861.72778,0.99606
3859.66819,0.99597
3857.60860,0.99622
3855.54901,0.99651
3853.48943,0.99673
3851.42984,0.99684
3849.37025,0.99689
3847.31066,0.99703
3845.25107,0.99728
3843.19148,0.99735
3841.13190,0.99709
3839.07231,0.99674
3837.01272,0.99655
3834.95313,0.99670
3832.89354,0.99675
3830.83396,0.99641
3828.77437,0.99611
3826.71478,0.99604
3824.65519,0.99604
3822.59560,0.99608
3820.53601,0.99621
3818.47643,0.99665
3816.41684,0.99719
3814.35725,0.99744
3812.29766,0.99736
3810.23807,0.99711
3808.17849,0.99704
3806.11890,0.99717
3804.05931,0.99699
3801.99972,0.99663
3799.94013,0.99638
3797.88055,0.99642
3795.82096,0.99660
3793.76137,0.99664
3791.70178,0.99663
3789.64219,0.99645
3787.58260,0.99635
3785.52302,0.99683
3783.46343,0.99728
3781.40384,0.99720
3779.34425,0.99691
3777.28466,0.99675
3775.22508,0.99692
3773.16549,0.99709
3771.10590,0.99710
3769.04631,0.99713
3766.98672,0.99720
3764.92713,0.99731
3762.86755,0.99729
3760.80796,0.99715
3758.74837,0.99709
3756.68878,0.99700
3754.62919,0.99681
3752.56961,0.99667
3750.51002,0.99662
3748.45043,0.99636
3746.39084,0.99592
3744.33125,0.99576
3742.27167,0.99617
3740.21208,0.99667
3738.15249,0.99672
3736.09290,0.99618
3734.03331,0.99589
3731.97372,0.99633
3729.91414,0.99685
3727.85455,0.99718
3725.79496,0.99724
3723.73537,0.99693
3721.67578,0.99647
3719.61620,0.99618
3717.55661,0.99631
3715.49702,0.99694
3713.43743,0.99758
3711.37784,0.99770
3709.31825,0.99741
3707.25867,0.99704
3705.19908,0.99701
3703.13949,0.99722
3701.07990,0.99709
3699.02031,0.99688
3696.96073,0.99675
3694.90114,0.99650
3692.84155,0.99633
3690.78196,0.99647
3688.72237,0.99671
3686.66279,0.99665
3684.60320,0.99633
3682.54361,0.99580
3680.48402,0.99544
3678.42443,0.99560
3676.36484,0.99591
3674.30526,0.99625
3672.24567,0.99681
3670.18608,0.99716
3668.12649,0.99665
3666.06690,0.99585
3664.00732,0.99549
3661.94773,0.99546
3659.88814,0.99538
3657.82855,0.99541
3655.76896,0.99562
3653.70937,0.99569
3651.64979,0.99555
3649.59020,0.99489
3647.53061,0.99447
3645.47102,0.99482
3643.41143,0.99510
3641.35185,0.99496
3639.29226,0.99469
3637.23267,0.99489
3635.17308,0.99533
3633.11349,0.99545
3631.05391,0.99520
3628.99432,0.99457
3626.93473,0.99391
3624.87514,0.99377
3622.81555,0.99403
3620.75596,0.99424
3618.69638,0.99429
3616.63679,0.99408
3614.57720,0.99354
3612.51761,0.99297
3610.45802,0.99269
3608.39844,0.99283
3606.33885,0.99316
3604.27926,0.99317
3602.21967,0.99304
3600.16008,0.99293
3598.10049,0.99258
3596.04091,0.99232
3593.98132,0.99253
3591.92173,0.99267
3589.86214,0.99239
3587.80255,0.99195
3585.74297,0.99179
3583.68338,0.99195
3581.62379,0.99207
3579.56420,0.99207
3577.50461,0.99192
3575.44503,0.99145
3573.38544,0.99105
3571.32585,0.99108
3569.26626,0.99126
3567.20667,0.99129
3565.14708,0.99128
3563.08750,0.99133
3561.02791,0.99124
3558.96832,0.99097
3556.90873,0.99062
3554.84914,0.99013
3552.78956,0.98982
3550.72997,0.98999
3548.67038,0.99038
3546.61079,0.99050
3544.55120,0.99001
3542.49161,0.98955
3540.43203,0.98953
3538.37244,0.98951
3536.31285,0.98938
3534.25326,0.98925
3532.19367,0.98919
3530.13409,0.98923
3528.07450,0.98915
3526.01491,0.98899
3523.95532,0.98889
3521.89573,0.98878
3519.83615,0.98864
3517.77656,0.98854
3515.71697,0.98888
3513.65738,0.98952
3511.59779,0.98979
3509.53820,0.98974
3507.47862,0.98955
3505.41903,0.98937
3503.35944,0.98962
3501.29985,0.98991
3499.24026,0.98974
3497.18068,0.98950
3495.12109,0.98931
3493.06150,0.98903
3491.00191,0.98891
3488.94232,0.98903
3486.88273,0.98893
3484.82315,0.98849
3482.76356,0.98813
3480.70397,0.98814
3478.64438,0.98849
3476.58479,0.98882
3474.52521,0.98873
3472.46562,0.98837
3470.40603,0.98807
3468.34644,0.98804
3466.28685,0.98835
3464.22727,0.98862
3462.16768,0.98851
3460.10809,0.98822
3458.04850,0.98812
3455.98891,0.98828
3453.92932,0.98832
3451.86974,0.98817
3449.81015,0.98806
3447.75056,0.98802
3445.69097,0.98798
3443.63138,0.98795
3441.57180,0.98803
3439.51221,0.98818
3437.45262,0.98821
3435.39303,0.98793
3433.33344,0.98767
3431.27385,0.98794
3429.21427,0.98842
3427.15468,0.98886
3425.09509,0.98914
3423.03550,0.98892
3420.97591,0.98864
3418.91633,0.98865
3416.85674,0.98868
3414.79715,0.98868
3412.73756,0.98863
3410.67797,0.98844
3408.61839,0.98836
3406.55880,0.98856
3404.49921,0.98867
3402.43962,0.98843
3400.38003,0.98813
3398.32044,0.98806
3396.26086,0.98818
3394.20127,0.98835
3392.14168,0.98850
3390.08209,0.98859
3388.02250,0.98884
3385.96292,0.98929
3383.90333,0.98931
3381.84374,0.98898
3379.78415,0.98890
3377.72456,0.98887
3375.66497,0.98874
3373.60539,0.98876
3371.54580,0.98880
3369.48621,0.98874
3367.42662,0.98885
3365.36703,0.98922
3363.30745,0.98959
3361.24786,0.98979
3359.18827,0.98976
3357.12868,0.98947
3355.06909,0.98910
3353.00951,0.98895
3350.94992,0.98908
3348.89033,0.98924
3346.83074,0.98919
3344.77115,0.98907
3342.71156,0.98920
3340.65198,0.98945
3338.59239,0.98953
3336.53280,0.98965
3334.47321,0.99001
3332.41362,0.99056
3330.35404,0.99080
3328.29445,0.99055
3326.23486,0.99025
3324.17527,0.99005
3322.11568,0.98976
3320.05609,0.98943
3317.99651,0.98950
3315.93692,0.99000
3313.87733,0.99035
3311.81774,0.99024
3309.75815,0.99003
3307.69857,0.99015
3305.63898,0.99051
3303.57939,0.99054
3301.51980,0.99037
3299.46021,0.99044
3297.40063,0.99065
3295.34104,0.99095
3293.28145,0.99099
3291.22186,0.99075
3289.16227,0.99084
3287.10268,0.99110
3285.04310,0.99121
3282.98351,0.99133
3280.92392,0.99143
3278.86433,0.99145
3276.80474,0.99153
3274.74516,0.99146
3272.68557,0.99111
3270.62598,0.99083
3268.56639,0.99092
3266.50680,0.99113
3264.44721,0.99126
3262.38763,0.99133
3260.32804,0.99118
3258.26845,0.99106
3256.20886,0.99126
3254.14927,0.99151
3252.08969,0.99178
3250.03010,0.99204
3247.97051,0.99201
3245.91092,0.99183
3243.85133,0.99169
3241.79175,0.99172
3239.73216,0.99206
3237.67257,0.99240
3235.61298,0.99241
3233.55339,0.99219
3231.49380,0.99206
3229.43422,0.99206
3227.37463,0.99201
3225.31504,0.99197
3223.25545,0.99219
3221.19586,0.99241
3219.13628,0.99237
3217.07669,0.99237
3215.01710,0.99256
3212.95751,0.99270
3210.89792,0.99269
3208.83833,0.99272
3206.77875,0.99289
3204.71916,0.99285
3202.65957,0.99267
3200.59998,0.99264
3198.54039,0.99259
3196.48081,0.99234
3194.42122,0.99227
3192.36163,0.99261
3190.30204,0.99270
3188.24245,0.99242
3186.18287,0.99234
3184.12328,0.99254
3182.06369,0.99277
3180.00410,0.99298
3177.94451,0.99315
3175.88492,0.99314
3173.82534,0.99308
3171.76575,0.99311
3169.70616,0.99315
3167.64657,0.99315
3165.58698,0.99327
3163.52740,0.99357
3161.46781,0.99371
3159.40822,0.99371
3157.34863,0.99369
3155.28904,0.99337
3153.22945,0.99305
3151.16987,0.99319
3149.11028,0.99351
3147.05069,0.99366
3144.99110,0.99357
3142.93151,0.99327
3140.87193,0.99292
3138.81234,0.99271
3136.75275,0.99261
3134.69316,0.99251
3132.63357,0.99257
3130.57399,0.99286
3128.51440,0.99327
3126.45481,0.99357
3124.39522,0.99365
3122.33563,0.99341
3120.27604,0.99286
3118.21646,0.99256
3116.15687,0.99266
3114.09728,0.99278
3112.03769,0.99274
3109.97810,0.99260
3107.91852,0.99259
3105.85893,0.99268
3103.79934,0.99248
3101.73975,0.99198
3099.68016,0.99160
3097.62057,0.99137
3095.56099,0.99108
3093.50140,0.99068
3091.44181,0.99018
3089.38222,0.98940
3087.32263,0.98852
3085.26305,0.98776
3083.20346,0.98678
3081.14387,0.98565
3079.08428,0.98491
3077.02469,0.98447
3074.96511,0.98419
3072.90552,0.98423
3070.84593,0.98446
3068.78634,0.98481
3066.72675,0.98546
3064.66716,0.98619
3062.60758,0.98656
3060.54799,0.98653
3058.48840,0.98628
3056.42881,0.98583
3054.36922,0.98510
3052.30964,0.98409
3050.25005,0.98260
3048.19046,0.98066
3046.13087,0.97856
3044.07128,0.97636
3042.01169,0.97406
3039.95211,0.97177
3037.89252,0.96953
3035.83293,0.96749
3033.77334,0.96583
3031.71375,0.96464
3029.65417,0.96369
3027.59458,0.96270
3025.53499,0.96162
3023.47540,0.96039
3021.41581,0.95899
3019.35623,0.95752
3017.29664,0.95605
3015.23705,0.95444
3013.17746,0.95270
3011.11787,0.95124
3009.05828,0.95034
3006.99870,0.94964
3004.93911,0.94894
3002.87952,0.94830
3000.81993,0.94743
2998.76034,0.94608
2996.70076,0.94431
2994.64117,0.94216
2992.58158,0.93981
2990.52199,0.93739
2988.46240,0.93507
2986.40281,0.93329
2984.34323,0.93211
2982.28364,0.93101
2980.22405,0.92961
2978.16446,0.92793
2976.10487,0.92592
2974.04529,0.92334
2971.98570,0.91998
2969.92611,0.91570
2967.86652,0.91045
2965.80693,0.90434
2963.74735,0.89758
2961.68776,0.89032
2959.62817,0.88301
2957.56858,0.87613
2955.50899,0.87021
2953.44940,0.86582
2951.38982,0.86233
2949.33023,0.85796
2947.27064,0.85177
2945.21105,0.84424
2943.15146,0.83595
2941.09188,0.82710
2939.03229,0.81765
2936.97270,0.80742
2934.91311,0.79635
2932.85352,0.78466
2930.79393,0.77252
2928.73435,0.75969
2926.67476,0.74556
2924.61517,0.72978
2922.55558,0.71258
2920.49599,0.69500
2918.43641,0.68092
2916.37682,0.67879
2914.31723,0.69488
2912.25764,0.72313
2910.19805,0.75093
2908.13847,0.77222
2906.07888,0.78794
2904.01929,0.80072
2901.95970,0.81243
2899.90011,0.82357
2897.84052,0.83408
2895.78094,0.84422
2893.72135,0.85408
2891.66176,0.86343
2889.60217,0.87199
2887.54258,0.87961
2885.48300,0.88671
2883.42341,0.89326
2881.36382,0.89848
2879.30423,0.90190
2877.24464,0.90335
2875.18505,0.90327
2873.12547,0.90290
2871.06588,0.90297
2869.00629,0.90283
2866.94670,0.90100
2864.88711,0.89636
2862.82753,0.88900
2860.76794,0.87955
2858.70835,0.86865
2856.64876,0.85597
2854.58917,0.83894
2852.52959,0.81530
2850.47000,0.79162
2848.41041,0.78475
2846.35082,0.80193
2844.29123,0.82989
2842.23164,0.85426
2840.17206,0.87309
2838.11247,0.88927
2836.05288,0.90430
2833.99329,0.91831
2831.93370,0.93092
2829.87412,0.94193
2827.81453,0.95130
2825.75494,0.95884
2823.69535,0.96464
2821.63576,0.96907
2819.57617,0.97238
2817.51659,0.97486
2815.45700,0.97685
2813.39741,0.97848
2811.33782,0.97987
2809.27823,0.98119
2807.21865,0.98231
2805.15906,0.98327
2803.09947,0.98410
2801.03988,0.98462
2798.98029,0.98493
2796.92071,0.98532
2794.86112,0.98576
2792.80153,0.98622
2790.74194,0.98667
2788.68235,0.98696
2786.62276,0.98726
2784.56318,0.98779
2782.50359,0.98836
2780.44400,0.98879
2778.38441,0.98923
2776.32482,0.98965
2774.26524,0.98987
2772.20565,0.98994
2770.14606,0.98991
2768.08647,0.98995
2766.02688,0.99019
2763.96729,0.99057
2761.90771,0.99099
2759.84812,0.99142
2757.78853,0.99174
2755.72894,0.99189
2753.66935,0.99195
2751.60977,0.99196
2749.55018,0.99183
2747.49059,0.99170
2745.43100,0.99176
2743.37141,0.99186
2741.31183,0.99190
2739.25224,0.99191
2737.19265,0.99176
2735.13306,0.99152
2733.07347,0.99156
2731.01388,0.99196
2728.95430,0.99228
2726.89471,0.99238
2724.83512,0.99250
2722.77553,0.99272
2720.71594,0.99290
2718.65636,0.99287
2716.59677,0.99273
2714.53718,0.99269
2712.47759,0.99273
2710.41800,0.99281
2708.35841,0.99286
2706.29883,0.99272
2704.23924,0.99259
2702.17965,0.99281
2700.12006,0.99309
2698.06047,0.99307
2696.00089,0.99297
2693.94130,0.99304
2691.88171,0.99311
2689.82212,0.99304
2687.76253,0.99287
2685.70295,0.99273
2683.64336,0.99276
2681.58377,0.99284
2679.52418,0.99286
2677.46459,0.99286
2675.40500,0.99271
2673.34542,0.99251
2671.28583,0.99259
2669.22624,0.99278
2667.16665,0.99277
2665.10706,0.99264
2663.04748,0.99252
2660.98789,0.99233
2658.92830,0.99214
2656.86871,0.99217
2654.80912,0.99233
2652.74953,0.99230
2650.68995,0.99202
2648.63036,0.99192
2646.57077,0.99223
2644.51118,0.99260
2642.45159,0.99277
2640.39201,0.99280
2638.33242,0.99274
2636.27283,0.99262
2634.21324,0.99266
2632.15365,0.99295
2630.09407,0.99311
2628.03448,0.99303
2625.97489,0.99302
2623.91530,0.99321
2621.85571,0.99339
2619.79612,0.99363
2617.73654,0.99394
2615.67695,0.99396
2613.61736,0.99383
2611.55777,0.99394
2609.49818,0.99407
2607.43860,0.99406
2605.37901,0.99427
2603.31942,0.99459
2601.25983,0.99461
2599.20024,0.99438
2597.14065,0.99422
2595.08107,0.99418
2593.02148,0.99418
2590.96189,0.99425
2588.90230,0.99432
2586.84271,0.99439
2584.78313,0.99448
2582.72354,0.99466
2580.66395,0.99502
2578.60436,0.99515
2576.54477,0.99488
2574.48519,0.99450
2572.42560,0.99440
2570.36601,0.99502
2568.30642,0.99570
2566.24683,0.99564
2564.18724,0.99525
2562.12766,0.99493
2560.06807,0.99493
2558.00848,0.99534
2555.94889,0.99553
2553.88930,0.99510
2551.82972,0.99463
2549.77013,0.99468
2547.71054,0.99508
2545.65095,0.99533
2543.59136,0.99519
2541.53177,0.99502
2539.47219,0.99517
2537.41260,0.99570
2535.35301,0.99625
2533.29342,0.99622
2531.23383,0.99557
2529.17425,0.99506
2527.11466,0.99506
2525.05507,0.99506
2522.99548,0.99495
2520.93589,0.99503
2518.87631,0.99512
2516.81672,0.99492
2514.75713,0.99474
2512.69754,0.99499
2510.63795,0.99566
2508.57836,0.99626
2506.51878,0.99641
2504.45919,0.99634
2502.39960,0.99623
2500.34001,0.99611
2498.28042,0.99609
2496.22084,0.99610
2494.16125,0.99602
2492.10166,0.99594
2490.04207,0.99588
2487.98248,0.99591
2485.92289,0.99615
2483.86331,0.99640
2481.80372,0.99648
2479.74413,0.99647
2477.68454,0.99635
2475.62495,0.99607
2473.56537,0.99592
2471.50578,0.99613
2469.44619,0.99635
2467.38660,0.99626
2465.32701,0.99611
2463.26743,0.99598
2461.20784,0.99563
2459.14825,0.99517
2457.08866,0.99522
2455.02907,0.99582
2452.96948,0.99610
2450.90990,0.99585
2448.85031,0.99566
2446.79072,0.99570
2444.73113,0.99600
2442.67154,0.99616
2440.61196,0.99578
2438.55237,0.99556
2436.49278,0.99597
2434.43319,0.99614
2432.37360,0.99582
2430.31401,0.99565
2428.25443,0.99579
2426.19484,0.99591
2424.13525,0.99581
2422.07566,0.99592
2420.01607,0.99625
2417.95649,0.99640
2415.89690,0.99636
2413.83731,0.99615
2411.77772,0.99593
2409.71813,0.99597
2407.65855,0.99629
2405.59896,0.99657
2403.53937,0.99660
2401.47978,0.99649
2399.42019,0.99613
2397.36060,0.99563
2395.30102,0.99543
2393.24143,0.99553
2391.18184,0.99571
2389.12225,0.99572
2387.06266,0.99561
2385.00308,0.99565
2382.94349,0.99604
2380.88390,0.99662
2378.82431,0.99685
2376.76472,0.99672
2374.70513,0.99658
2372.64555,0.99643
2370.58596,0.99629
2368.52637,0.99652
2366.46678,0.99687
2364.40719,0.99662
2362.34761,0.99594
2360.28802,0.99531
2358.22843,0.99496
2356.16884,0.99504
2354.10925,0.99537
2352.04967,0.99546
2349.99008,0.99553
2347.93049,0.99579
2345.87090,0.99572
2343.81131,0.99497
2341.75172,0.99429
2339.69214,0.99439
2337.63255,0.99510
2335.57296,0.99594
2333.51337,0.99633
2331.45378,0.99619
2329.39420,0.99557
2327.33461,0.99448
2325.27502,0.99368
2323.21543,0.99379
2321.15584,0.99430
2319.09625,0.99444
2317.03667,0.99422
2314.97708,0.99420
2312.91749,0.99460
2310.85790,0.99497
2308.79831,0.99509
2306.73873,0.99525
2304.67914,0.99538
2302.61955,0.99512
2300.55996,0.99481
2298.50037,0.99479
2296.44079,0.99448
2294.38120,0.99378
2292.32161,0.99347
2290.26202,0.99348
2288.20243,0.99324
2286.14284,0.99313
2284.08326,0.99334
2282.02367,0.99328
2279.96408,0.99272
2277.90449,0.99194
2275.84490,0.99157
2273.78532,0.99185
2271.72573,0.99230
2269.66614,0.99256
2267.60655,0.99245
2265.54696,0.99215
2263.48737,0.99223
2261.42779,0.99246
2259.36820,0.99224
2257.30861,0.99179
2255.24902,0.99127
2253.18943,0.99041
2251.12985,0.98910
2249.07026,0.98709
2247.01067,0.98318
2244.95108,0.97621
2242.89149,0.96583
2240.83191,0.95317
2238.77232,0.94293
2236.71273,0.94083
2234.65314,0.94809
2232.59355,0.96104
2230.53396,0.97458
2228.47438,0.98476
2226.41479,0.99024
2224.35520,0.99234
2222.29561,0.99337
2220.23602,0.99415
2218.17644,0.99452
2216.11685,0.99439
2214.05726,0.99377
2211.99767,0.99372
2209.93808,0.99485
2207.87849,0.99582
2205.81891,0.99569
2203.75932,0.99525
2201.69973,0.99557
2199.64014,0.99614
2197.58055,0.99588
2195.52097,0.99486
2193.46138,0.99375
2191.40179,0.99352
2189.34220,0.99436
2187.28261,0.99538
2185.22303,0.99579
2183.16344,0.99531
2181.10385,0.99480
2179.04426,0.99497
2176.98467,0.99512
2174.92508,0.99542
2172.86550,0.99644
2170.80591,0.99687
2168.74632,0.99575
2166.68673,0.99459
2164.62714,0.99450
2162.56756,0.99488
2160.50797,0.99631
2158.44838,0.99890
2156.38879,0.99937
2154.32920,0.99775
2152.26961,0.99678
2150.21003,0.99655
2148.15044,0.99637
2146.09085,0.99694
2144.03126,0.99828
2141.97167,0.99841
2139.91209,0.99738
2137.85250,0.99759
2135.79291,0.99891
2133.73332,0.99937
2131.67373,0.99897
2129.61415,0.99877
2127.55456,0.99853
2125.49497,0.99795
2123.43538,0.99764
2121.37579,0.99784
2119.31620,0.99793
2117.25662,0.99756
2115.19703,0.99724
2113.13744,0.99739
2111.07785,0.99738
2109.01826,0.99713
2106.95868,0.99735
2104.89909,0.99772
2102.83950,0.99788
2100.77991,0.99806
2098.72032,0.99804
2096.66073,0.99798
2094.60115,0.99823
2092.54156,0.99789
2090.48197,0.99682
2088.42238,0.99635
2086.36279,0.99696
2084.30321,0.99753
2082.24362,0.99694
2080.18403,0.99579
2078.12444,0.99542
2076.06485,0.99603
2074.00527,0.99670
2071.94568,0.99666
2069.88609,0.99609
2067.82650,0.99553
2065.76691,0.99559
2063.70732,0.99624
2061.64774,0.99679
2059.58815,0.99661
2057.52856,0.99569
2055.46897,0.99537
2053.40938,0.99560
2051.34980,0.99502
2049.29021,0.99482
2047.23062,0.99627
2045.17103,0.99776
2043.11144,0.99832
2041.05185,0.99831
2038.99227,0.99780
2036.93268,0.99795
2034.87309,0.99899
2032.81350,0.99877
2030.75391,0.99714
2028.69433,0.99641
2026.63474,0.99679
2024.57515,0.99751
2022.51556,0.99856
2020.45597,0.99894
2018.39639,0.99805
2016.33680,0.99735
2014.27721,0.99782
2012.21762,0.99795
2010.15803,0.99753
2008.09844,0.99803
2006.03886,0.99922
2003.97927,0.99970
2001.91968,0.99863
1999.86009,0.99734
1997.80050,0.99762
1995.74092,0.99880
1993.68133,0.99899
1991.62174,0.99773
1989.56215,0.99645
1987.50256,0.99590
1985.44297,0.99555
1983.38339,0.99561
1981.32380,0.99607
1979.26421,0.99646
1977.20462,0.99712
1975.14503,0.99768
1973.08545,0.99799
1971.02586,0.99928
1968.96627,1.00063
1966.90668,1.00014
1964.84709,0.99899
1962.78751,0.99970
1960.72792,1.00147
1958.66833,1.00123
1956.60874,0.99953
1954.54915,0.99920
1952.48956,0.99986
1950.42998,0.99996
1948.37039,1.00011
1946.31080,1.00050
1944.25121,1.00048
1942.19162,0.99999
1940.13204,0.99917
1938.07245,0.99868
1936.01286,0.99900
1933.95327,1.00003
1931.89368,1.00068
1929.83409,1.00006
1927.77451,0.99925
1925.71492,0.99907
1923.65533,0.99900
1921.59574,0.99887
1919.53615,0.99872
1917.47657,0.99821
1915.41698,0.99755
1913.35739,0.99712
1911.29780,0.99686
1909.23821,0.99660
1907.17863,0.99670
1905.11904,0.99708
1903.05945,0.99719
1900.99986,0.99706
1898.94027,0.99687
1896.88068,0.99680
1894.82110,0.99693
1892.76151,0.99705
1890.70192,0.99700
1888.64233,0.99670
1886.58274,0.99620
1884.52316,0.99576
1882.46357,0.99567
1880.40398,0.99594
1878.34439,0.99604
1876.28480,0.99561
1874.22521,0.99531
1872.16563,0.99577
1870.10604,0.99657
1868.04645,0.99665
1865.98686,0.99633
1863.92727,0.99647
1861.86769,0.99655
1859.80810,0.99593
1857.74851,0.99505
1855.68892,0.99480
1853.62933,0.99491
1851.56975,0.99473
1849.51016,0.99478
1847.45057,0.99516
1845.39098,0.99502
1843.33139,0.99446
1841.27180,0.99416
1839.21222,0.99404
1837.15263,0.99382
1835.09304,0.99339
1833.03345,0.99304
1830.97386,0.99323
1828.91428,0.99377
1826.85469,0.99395
1824.79510,0.99381
1822.73551,0.99375
1820.67592,0.99363
1818.61633,0.99347
1816.55675,0.99353
1814.49716,0.99369
1812.43757,0.99371
1810.37798,0.99370
1808.31839,0.99371
1806.25881,0.99352
1804.19922,0.99305
1802.13963,0.99261
1800.08004,0.99237
1798.02045,0.99211
1795.96087,0.99170
1793.90128,0.99113
1791.84169,0.99044
1789.78210,0.98962
1787.72251,0.98873
1785.66292,0.98766
1783.60334,0.98617
1781.54375,0.98442
1779.48416,0.98275
1777.42457,0.98120
1775.36498,0.97964
1773.30540,0.97805
1771.24581,0.97682
1769.18622,0.97654
1767.12663,0.97725
1765.06704,0.97852
1763.00745,0.98009
1760.94787,0.98185
1758.88828,0.98339
1756.82869,0.98477
1754.76910,0.98589
1752.70951,0.98656
1750.64993,0.98709
1748.59034,0.98747
1746.53075,0.98736
1744.47116,0.98684
1742.41157,0.98619
1740.35199,0.98551
1738.29240,0.98497
1736.23281,0.98463
1734.17322,0.98409
1732.11363,0.98340
1730.05404,0.98309
1727.99446,0.98297
1725.93487,0.98310
1723.87528,0.98359
1721.81569,0.98429
1719.75610,0.98496
1717.69652,0.98556
1715.63693,0.98621
1713.57734,0.98689
1711.51775,0.98733
1709.45816,0.98755
1707.39857,0.98783
1705.33899,0.98802
1703.27940,0.98787
1701.21981,0.98767
1699.16022,0.98778
1697.10063,0.98774
1695.04105,0.98752
1692.98146,0.98754
1690.92187,0.98757
1688.86228,0.98735
1686.80269,0.98714
1684.74311,0.98703
1682.68352,0.98662
1680.62393,0.98581
1678.56434,0.98465
1676.50475,0.98292
1674.44516,0.98038
1672.38558,0.97801
1670.32599,0.97610
1668.26640,0.97477
1666.20681,0.97463
1664.14722,0.97534
1662.08764,0.97647
1660.02805,0.97737
1657.96846,0.97760
1655.90887,0.97731
1653.84928,0.97638
1651.78969,0.97457
1649.73011,0.97285
1647.67052,0.96999
1645.61093,0.96483
1643.55134,0.95955
1641.49175,0.95548
1639.43217,0.95329
1637.37258,0.95337
1635.31299,0.95472
1633.25340,0.95536
1631.19381,0.95479
1629.13423,0.95317
1627.07464,0.95063
1625.01505,0.94727
1622.95546,0.94266
1620.89587,0.93725
1618.83628,0.93087
1616.77670,0.92063
1614.71711,0.90788
1612.65752,0.89610
1610.59793,0.88445
1608.53834,0.87414
1606.47876,0.86774
1604.41917,0.86605
1602.35958,0.86826
1600.29999,0.87280
1598.24040,0.87821
1596.18081,0.88337
1594.12123,0.88736
1592.06164,0.88991
1590.00205,0.89105
1587.94246,0.89060
1585.88287,0.88856
1583.82329,0.88511
1581.76370,0.88033
1579.70411,0.87538
1577.64452,0.87200
1575.58493,0.87184
1573.52535,0.87510
1571.46576,0.88044
1569.40617,0.88764
1567.34658,0.89429
1565.28699,0.89944
1563.22740,0.90359
1561.16782,0.90693
1559.10823,0.91093
1557.04864,0.91448
1554.98905,0.91643
1552.92946,0.91813
1550.86988,0.91940
1548.81029,0.91947
1546.75070,0.91795
1544.69111,0.91490
1542.63152,0.91152
1540.57193,0.91126
1538.51235,0.91712
1536.45276,0.92514
1534.39317,0.93448
1532.33358,0.94429
1530.27399,0.95093
1528.21441,0.95553
1526.15482,0.95948
1524.09523,0.96234
1522.03564,0.96455
1519.97605,0.96631
1517.91647,0.96717
1515.85688,0.96734
1513.79729,0.96725
1511.73770,0.96704
1509.67811,0.96662
1507.61852,0.96574
1505.55894,0.96423
1503.49935,0.96306
1501.43976,0.96233
1499.38017,0.96157
1497.32058,0.96079
1495.26100,0.96024
1493.20141,0.95982
1491.14182,0.95911
1489.08223,0.95715
1487.02264,0.95335
1484.96305,0.94807
1482.90347,0.94117
1480.84388,0.93279
1478.78429,0.92415
1476.72470,0.91524
1474.66511,0.90528
1472.60553,0.89586
1470.54594,0.88976
1468.48635,0.88522
1466.42676,0.87981
1464.36717,0.87464
1462.30759,0.87230
1460.24800,0.87024
1458.18841,0.85976
1456.12882,0.83640
1454.06923,0.81701
1452.00964,0.80633
1449.95006,0.80094
1447.89047,0.79964
1445.83088,0.79991
1443.77129,0.79918
1441.71170,0.79692
1439.65212,0.79443
1437.59253,0.79352
1435.53294,0.79644
1433.47335,0.80453
1431.41376,0.81833
1429.35417,0.83672
1427.29459,0.85325
1425.23500,0.86359
1423.17541,0.86743
1421.11582,0.86671
1419.05623,0.86443
1416.99665,0.86296
1414.93706,0.86228
1412.87747,0.86121
1410.81788,0.85976
1408.75829,0.85895
1406.69871,0.85993
1404.63912,0.86325
1402.57953,0.86849
1400.51994,0.87543
1398.46035,0.88413
1396.40076,0.89321
1394.34118,0.90199
1392.28159,0.90961
1390.22200,0.91535
1388.16241,0.91943
1386.10282,0.92123
1384.04324,0.92052
1381.98365,0.91797
1379.92406,0.91462
1377.86447,0.91203
1375.80488,0.91119
1373.74529,0.91186
1371.68571,0.91301
1369.62612,0.91391
1367.56653,0.91431
1365.50694,0.91445
1363.44735,0.91478
1361.38777,0.91551
1359.32818,0.91639
1357.26859,0.91727
1355.20900,0.91817
1353.14941,0.91903
1351.08983,0.91987
1349.03024,0.92089
1346.97065,0.92220
1344.91106,0.92375
1342.85147,0.92557
1340.79188,0.92789
1338.73230,0.93065
1336.67271,0.93328
1334.61312,0.93558
1332.55353,0.93756
1330.49394,0.93891
1328.43436,0.93930
1326.37477,0.93867
1324.31518,0.93725
1322.25559,0.93550
1320.19600,0.93377
1318.13641,0.93230
1316.07683,0.93129
1314.01724,0.93058
1311.95765,0.93018
1309.89806,0.93012
1307.83847,0.93026
1305.77889,0.93056
1303.71930,0.93102
1301.65971,0.93166
1299.60012,0.93244
1297.54053,0.93343
1295.48095,0.93458
1293.42136,0.93578
1291.36177,0.93716
1289.30218,0.93902
1287.24259,0.94138
1285.18300,0.94387
1283.12342,0.94601
1281.06383,0.94749
1279.00424,0.94836
1276.94465,0.94886
1274.88506,0.94919
1272.82548,0.94933
1270.76589,0.94913
1268.70630,0.94862
1266.64671,0.94823
1264.58712,0.94811
1262.52753,0.94813
1260.46795,0.94840
1258.40836,0.94880
1256.34877,0.94900
1254.28918,0.94889
1252.22959,0.94848
1250.17001,0.94787
1248.11042,0.94720
1246.05083,0.94650
1243.99124,0.94576
1241.93165,0.94496
1239.87207,0.94412
1237.81248,0.94342
1235.75289,0.94273
1233.69330,0.94196
1231.63371,0.94117
1229.57412,0.93998
1227.51454,0.93823
1225.45495,0.93655
1223.39536,0.93552
1221.33577,0.93529
1219.27618,0.93588
1217.21660,0.93713
1215.15701,0.93856
1213.09742,0.93979
1211.03783,0.94073
1208.97824,0.94142
1206.91865,0.94180
1204.85907,0.94186
1202.79948,0.94167
1200.73989,0.94124
1198.68030,0.94067
1196.62071,0.94007
1194.56113,0.93927
1192.50154,0.93838
1190.44195,0.93771
1188.38236,0.93721
1186.32277,0.93681
1184.26319,0.93685
1182.20360,0.93753
1180.14401,0.93869
1178.08442,0.94019
1176.02483,0.94185
1173.96524,0.94345
1171.90566,0.94506
1169.84607,0.94675
1167.78648,0.94834
1165.72689,0.94986
1163.66730,0.95143
1161.60772,0.95297
1159.54813,0.95430
1157.48854,0.95527
1155.42895,0.95607
1153.36936,0.95691
1151.30977,0.95757
1149.25019,0.95803
1147.19060,0.95827
1145.13101,0.95811
1143.07142,0.95765
1141.01183,0.95678
1138.95225,0.95513
1136.89266,0.95296
1134.83307,0.95103
1132.77348,0.94983
1130.71389,0.94971
1128.65431,0.95075
1126.59472,0.95242
1124.53513,0.95390
1122.47554,0.95475
1120.41595,0.95504
1118.35636,0.95468
1116.29678,0.95365
1114.23719,0.95260
1112.17760,0.95209
1110.11801,0.95211
1108.05842,0.95235
1105.99884,0.95228
1103.93925,0.95185
1101.87966,0.95131
1099.82007,0.95028
1097.76048,0.94863
1095.70089,0.94692
1093.64131,0.94526
1091.58172,0.94357
1089.52213,0.94227
1087.46254,0.94136
1085.40295,0.94045
1083.34337,0.93956
1081.28378,0.93898
1079.22419,0.93893
1077.16460,0.93949
1075.10501,0.94048
1073.04543,0.94150
1070.98584,0.94238
1068.92625,0.94310
1066.86666,0.94362
1064.80707,0.94393
1062.74748,0.94388
1060.68790,0.94319
1058.62831,0.94180
1056.56872,0.94002
1054.50913,0.93824
1052.44954,0.93668
1050.38996,0.93553
1048.33037,0.93499
1046.27078,0.93494
1044.21119,0.93559
1042.15160,0.93716
1040.09201,0.93899
1038.03243,0.94051
1035.97284,0.94188
1033.91325,0.94304
1031.85366,0.94375
1029.79407,0.94401
1027.73449,0.94379
1025.67490,0.94310
1023.61531,0.94212
1021.55572,0.94076
1019.49613,0.93841
1017.43655,0.93450
1015.37696,0.92916
1013.31737,0.92373
1011.25778,0.91953
1009.19819,0.91628
1007.13860,0.91249
1005.07902,0.90720
1003.01943,0.90079
1000.95984,0.89389
998.90025,0.88708
996.84066,0.88126
994.78108,0.87666
992.72149,0.87223
990.66190,0.86602
988.60231,0.85561
986.54272,0.83879
984.48313,0.81451
982.42355,0.78290
980.36396,0.74449
978.30437,0.70027
976.24478,0.65220
974.18519,0.60303
972.12561,0.55623
970.06602,0.51634
968.00643,0.48929
965.94684,0.48193
963.88725,0.50018
961.82767,0.54537
959.76808,0.61046
957.70849,0.68159
955.64890,0.74549
953.58931,0.79555
951.52972,0.83185
949.47014,0.85733
947.41055,0.87507
945.35096,0.88726
943.29137,0.89497
941.23178,0.89918
939.17220,0.90094
937.11261,0.90037
935.05302,0.89739
932.99343,0.89262
930.93384,0.88649
928.87425,0.87898
926.81467,0.87057
924.75508,0.86188
922.69549,0.85327
920.63590,0.84579
918.57631,0.84084
916.51673,0.83939
914.45714,0.84172
912.39755,0.84781
910.33796,0.85758
908.27837,0.87024
906.21879,0.88434
904.15920,0.89843
902.09961,0.91101
900.04002,0.92087
897.98043,0.92803
895.92084,0.93312
893.86126,0.93659
891.80167,0.93886
889.74208,0.94038
887.68249,0.94170
885.62290,0.94313
883.56332,0.94456
881.50373,0.94580
879.44414,0.94678
877.38455,0.94771
875.32496,0.94875
873.26537,0.94961
871.20579,0.95030
869.14620,0.95101
867.08661,0.95150
865.02702,0.95165
862.96743,0.95171
860.90785,0.95171
858.84826,0.95171
856.78867,0.95191
854.72908,0.95217
852.66949,0.95208
850.60991,0.95155
848.55032,0.95099
846.49073,0.95024
844.43114,0.94868
842.37155,0.94652
840.31196,0.94415
838.25238,0.94106
836.19279,0.93815
834.13320,0.93765
832.07361,0.93886
830.01402,0.93966
827.95444,0.93991
825.89485,0.94036
823.83526,0.94115
821.77567,0.94193
819.71608,0.94225
817.65649,0.94201
815.59691,0.94170
813.53732,0.94149
811.47773,0.94109
809.41814,0.94073
807.35855,0.94040
805.29897,0.93962
803.23938,0.93850
801.17979,0.93731
799.12020,0.93609
797.06061,0.93502
795.00103,0.93407
792.94144,0.93275
790.88185,0.93127
788.82226,0.93021
786.76267,0.92929
784.70308,0.92837
782.64350,0.92777
780.58391,0.92707
778.52432,0.92582
776.46473,0.92425
774.40514,0.92253
772.34556,0.92061
770.28597,0.91871
768.22638,0.91690
766.16679,0.91484
764.10720,0.91265
762.04761,0.91070
759.98803,0.90911
757.92844,0.90751
755.86885,0.90571
753.80926,0.90397
751.74967,0.90214
749.69009,0.90026
747.63050,0.89869
745.57091,0.89708
743.51132,0.89518
741.45173,0.89322
739.39215,0.89109
737.33256,0.88870
735.27297,0.88591
733.21338,0.88234
731.15379,0.87815
729.09420,0.87464
727.03462,0.87275
724.97503,0.87153
722.91544,0.86942
720.85585,0.86711
718.79626,0.86752
716.73668,0.87061
714.67709,0.87314
712.61750,0.87392
710.55791,0.87371
708.49832,0.87282
706.43873,0.87156
704.37915,0.87026
702.31956,0.86847
700.25997,0.86583
698.20038,0.86294
696.14079,0.86031
694.08121,0.85788
692.02162,0.85569
689.96203,0.85401
687.90244,0.85301
685.84285,0.85311
683.78327,0.85432
681.72368,0.85589
679.66409,0.85724
677.60450,0.85846
675.54491,0.85971
673.48532,0.86104
671.42574,0.86241
669.36615,0.86411
667.30656,0.86640
665.24697,0.86821
663.18738,0.86921
661.12780,0.86962
659.06821,0.87017
657.00862,0.87143
654.94903,0.87261
652.88944,0.87322
650.82985,0.87383
648.77027,0.87457
646.71068,0.87498
644.65109,0.87520
642.59150,0.87538
640.53191,0.87497
638.47233,0.87375
636.41274,0.87246
634.35315,0.87200
632.29356,0.87226
630.23397,0.87235
628.17439,0.87184
626.11480,0.87109
624.05521,0.87061
621.99562,0.87069
619.93603,0.87083
617.87644,0.87081
615.81686,0.87101
613.75727,0.87119
611.69768,0.87129
609.63809,0.87163
607.57850,0.87207
605.51892,0.87280
603.45933,0.87430
601.39974,0.87562
599.34015,0.87613
597.28056,0.87608
595.22097,0.87532
593.16139,0.87410
591.10180,0.87325
589.04221,0.87303
586.98262,0.87278
584.92303,0.87208
582.86345,0.87128
580.80386,0.87110
578.74427,0.87171
576.68468,0.87261
574.62509,0.87374
572.56551,0.87467
570.50592,0.87505
568.44633,0.87504
566.38674,0.87399
564.32715,0.87225
562.26756,0.87174
560.20798,0.87214
558.14839,0.87188
556.08880,0.87114
554.02921,0.87075
551.96962,0.87072
549.91004,0.87057
547.85045,0.87021
545.79086,0.87021
543.73127,0.87061
541.67168,0.87115
539.61209,0.87205
537.55251,0.87328
535.49292,0.87473
533.43333,0.87575
531.37374,0.87564
529.31415,0.87516
527.25457,0.87530
525.19498,0.87611
523.13539,0.87715
521.07580,0.87860
519.01621,0.87938
516.95663,0.87902
514.89704,0.87974
512.83745,0.88174
510.77786,0.88375
508.71827,0.88556
506.65868,0.88646
504.59910,0.88619
502.53951,0.88621
500.47992,0.88693
498.42033,0.88763
496.36074,0.88791
494.30116,0.88796
492.24157,0.88862
490.18198,0.88987
488.12239,0.89063
486.06280,0.89073
484.00321,0.89100
481.94363,0.89195
479.88404,0.89294
477.82445,0.89265
475.76486,0.89159
473.70527,0.89101
471.64569,0.89038
469.58610,0.88933
467.52651,0.88921
465.46692,0.88996
463.40733,0.88949
461.34775,0.88804
459.28816,0.88658
457.22857,0.88510
455.16898,0.88431
453.10939,0.88318
451.04980,0.88103
448.99022,0.87940
446.93063,0.87836
444.87104,0.87674
442.81145,0.87411
440.75186,0.87020
438.69228,0.86483
436.63269,0.85865
434.57310,0.85401
432.51351,0.85151
430.45392,0.84929
428.39433,0.84750
426.33475,0.84667
424.27516,0.84643
422.21557,0.84610
420.15598,0.84286
418.09639,0.83731
416.03681,0.83684
413.97722,0.84014
411.91763,0.84294
409.85804,0.84436
407.79845,0.84423
405.73887,0.84273
403.67928,0.84110
401.61969,0.84075
399.56010,0.84117
