3997.70013,0.03235
3995.64052,0.03302
3993.58092,0.03331
3991.52131,0.03320
3989.46170,0.03323
3987.40209,0.03311
3985.34248,0.03286
3983.28287,0.03304
3981.22327,0.03313
3979.16366,0.03256
3977.10405,0.03200
3975.04444,0.03217
3972.98483,0.03281
3970.92522,0.03311
3968.86561,0.03291
3966.80601,0.03251
3964.74640,0.03206
3962.68679,0.03207
3960.62718,0.03262
3958.56757,0.03273
3956.50796,0.03219
3954.44835,0.03204
3952.38875,0.03261
3950.32914,0.03299
3948.26953,0.03256
3946.20992,0.03212
3944.15031,0.03205
3942.09070,0.03201
3940.03109,0.03206
3937.97149,0.03190
3935.91188,0.03182
3933.85227,0.03270
3931.79266,0.03354
3929.73305,0.03356
3927.67344,0.03348
3925.61384,0.03309
3923.55423,0.03276
3921.49462,0.03315
3919.43501,0.03337
3917.37540,0.03297
3915.31579,0.03292
3913.25618,0.03342
3911.19658,0.03373
3909.13697,0.03359
3907.07736,0.03346
3905.01775,0.03373
3902.95814,0.03381
3900.89853,0.03315
3898.83892,0.03287
3896.77932,0.03372
3894.71971,0.03485
3892.66010,0.03531
3890.60049,0.03508
3888.54088,0.03480
3886.48127,0.03491
3884.42166,0.03516
3882.36206,0.03528
3880.30245,0.03543
3878.24284,0.03541
3876.18323,0.03533
3874.12362,0.03537
3872.06401,0.03531
3870.00441,0.03536
3867.94480,0.03543
3865.88519,0.03534
3863.82558,0.03558
3861.76597,0.03600
3859.70636,0.03640
3857.64675,0.03681
3855.58715,0.03655
3853.52754,0.03573
3851.46793,0.03542
3849.40832,0.03543
3847.34871,0.03599
3845.28910,0.03692
3843.22949,0.03738
3841.16989,0.03687
3839.11028,0.03565
3837.05067,0.03504
3834.99106,0.03549
3832.93145,0.03612
3830.87184,0.03658
3828.81223,0.03678
3826.75263,0.03665
3824.69302,0.03610
3822.63341,0.03558
3820.57380,0.03589
3818.51419,0.03607
3816.45458,0.03539
3814.39498,0.03503
3812.33537,0.03540
3810.27576,0.03577
3808.21615,0.03575
3806.15654,0.03507
3804.09693,0.03374
3802.03732,0.03274
3799.97772,0.03310
3797.91811,0.03370
3795.85850,0.03374
3793.79889,0.03411
3791.73928,0.03502
3789.67967,0.03554
3787.62006,0.03551
3785.56046,0.03499
3783.50085,0.03414
3781.44124,0.03379
3779.38163,0.03381
3777.32202,0.03347
3775.26241,0.03301
3773.20280,0.03319
3771.14320,0.03382
3769.08359,0.03395
3767.02398,0.03333
3764.96437,0.03247
3762.90476,0.03245
3760.84515,0.03351
3758.78555,0.03436
3756.72594,0.03396
3754.66633,0.03310
3752.60672,0.03283
3750.54711,0.03281
3748.48750,0.03229
3746.42789,0.03141
3744.36829,0.03090
3742.30868,0.03160
3740.24907,0.03216
3738.18946,0.03240
3736.12985,0.03302
3734.07024,0.03332
3732.01063,0.03301
3729.95103,0.03286
3727.89142,0.03287
3725.83181,0.03266
3723.77220,0.03251
3721.71259,0.03255
3719.65298,0.03193
3717.59337,0.03099
3715.53377,0.03059
3713.47416,0.03056
3711.41455,0.03069
3709.35494,0.03062
3707.29533,0.03023
3705.23572,0.02974
3703.17612,0.02922
3701.11651,0.02915
3699.05690,0.02935
3696.99729,0.02940
3694.93768,0.02996
3692.87807,0.03077
3690.81846,0.03088
3688.75886,0.03080
3686.69925,0.03081
3684.63964,0.03045
3682.58003,0.03034
3680.52042,0.03086
3678.46081,0.03120
3676.40120,0.03099
3674.34160,0.03053
3672.28199,0.03005
3670.22238,0.02988
3668.16277,0.02988
3666.10316,0.03006
3664.04355,0.03048
3661.98394,0.03067
3659.92434,0.03083
3657.86473,0.03105
3655.80512,0.03084
3653.74551,0.03082
3651.68590,0.03151
3649.62629,0.03233
3647.56669,0.03267
3645.50708,0.03256
3643.44747,0.03208
3641.38786,0.03187
3639.32825,0.03213
3637.26864,0.03194
3635.20903,0.03109
3633.14943,0.03022
3631.08982,0.02993
3629.03021,0.03056
3626.97060,0.03106
3624.91099,0.03132
3622.85138,0.03217
3620.79177,0.03292
3618.73217,0.03272
3616.67256,0.03235
3614.61295,0.03237
3612.55334,0.03246
3610.49373,0.03257
3608.43412,0.03280
3606.37451,0.03282
3604.31491,0.03259
3602.25530,0.03268
3600.19569,0.03339
3598.13608,0.03425
3596.07647,0.03463
3594.01686,0.03420
3591.95726,0.03374
3589.89765,0.03415
3587.83804,0.03468
3585.77843,0.03442
3583.71882,0.03408
3581.65921,0.03418
3579.59960,0.03467
3577.54000,0.03545
3575.48039,0.03600
3573.42078,0.03626
3571.36117,0.03665
3569.30156,0.03697
3567.24195,0.03712
3565.18234,0.03753
3563.12274,0.03791
3561.06313,0.03799
3559.00352,0.03805
3556.94391,0.03807
3554.88430,0.03767
3552.82469,0.03741
3550.76508,0.03820
3548.70548,0.03922
3546.64587,0.03958
3544.58626,0.03964
3542.52665,0.03979
3540.46704,0.04009
3538.40743,0.04065
3536.34783,0.04119
3534.28822,0.04141
3532.22861,0.04171
3530.16900,0.04257
3528.10939,0.04352
3526.04978,0.04386
3523.99017,0.04373
3521.93057,0.04372
3519.87096,0.04371
3517.81135,0.04347
3515.75174,0.04370
3513.69213,0.04452
3511.63252,0.04501
3509.57291,0.04498
3507.51331,0.04501
3505.45370,0.04526
3503.39409,0.04565
3501.33448,0.04616
3499.27487,0.04662
3497.21526,0.04676
3495.15565,0.04665
3493.09605,0.04674
3491.03644,0.04715
3488.97683,0.04763
3486.91722,0.04798
3484.85761,0.04800
3482.79800,0.04768
3480.73840,0.04765
3478.67879,0.04794
3476.61918,0.04823
3474.55957,0.04871
3472.49996,0.04885
3470.44035,0.04838
3468.38074,0.04826
3466.32114,0.04883
3464.26153,0.04928
3462.20192,0.04912
3460.14231,0.04884
3458.08270,0.04919
3456.02309,0.05004
3453.96348,0.05056
3451.90388,0.05037
3449.84427,0.05020
3447.78466,0.05072
3445.72505,0.05120
3443.66544,0.05118
3441.60583,0.05138
3439.54622,0.05169
3437.48662,0.05159
3435.42701,0.05160
3433.36740,0.05195
3431.30779,0.05225
3429.24818,0.05244
3427.18857,0.05259
3425.12897,0.05237
3423.06936,0.05156
3421.00975,0.05118
3418.95014,0.05195
3416.89053,0.05272
3414.83092,0.05262
3412.77131,0.05215
3410.71171,0.05195
3408.65210,0.05207
3406.59249,0.05231
3404.53288,0.05241
3402.47327,0.05248
3400.41366,0.05294
3398.35405,0.05351
3396.29445,0.05383
3394.23484,0.05412
3392.17523,0.05403
3390.11562,0.05327
3388.05601,0.05291
3385.99640,0.05349
3383.93679,0.05408
3381.87719,0.05417
3379.81758,0.05430
3377.75797,0.05481
3375.69836,0.05520
3373.63875,0.05524
3371.57914,0.05573
3369.51954,0.05696
3367.45993,0.05820
3365.40032,0.05917
3363.34071,0.06028
3361.28110,0.06147
3359.22149,0.06274
3357.16188,0.06449
3355.10228,0.06658
3353.04267,0.06839
3350.98306,0.07017
3348.92345,0.07275
3346.86384,0.07599
3344.80423,0.07909
3342.74462,0.08210
3340.68502,0.08567
3338.62541,0.08971
3336.56580,0.09386
3334.50619,0.09832
3332.44658,0.10331
3330.38697,0.10893
3328.32736,0.11546
3326.26776,0.12274
3324.20815,0.12999
3322.14854,0.13691
3320.08893,0.14427
3318.02932,0.15263
3315.96971,0.16138
3313.91011,0.17035
3311.85050,0.17991
3309.79089,0.18988
3307.73128,0.19999
3305.67167,0.21014
3303.61206,0.22052
3301.55245,0.23094
3299.49285,0.24170
3297.43324,0.25306
3295.37363,0.26327
3293.31402,0.27107
3291.25441,0.27728
3289.19480,0.28208
3287.13519,0.28528
3285.07559,0.28689
3283.01598,0.28618
3280.95637,0.28238
3278.89676,0.27559
3276.83715,0.26673
3274.77754,0.25662
3272.71793,0.24552
3270.65833,0.23320
3268.59872,0.21971
3266.53911,0.20608
3264.47950,0.19312
3262.41989,0.18068
3260.36028,0.16891
3258.30068,0.15847
3256.24107,0.14972
3254.18146,0.14223
3252.12185,0.13530
3250.06224,0.12873
3248.00263,0.12252
3245.94302,0.11681
3243.88342,0.11169
3241.82381,0.10703
3239.76420,0.10294
3237.70459,0.09939
3235.64498,0.09600
3233.58537,0.09266
3231.52576,0.08954
3229.46616,0.08683
3227.40655,0.08449
3225.34694,0.08217
3223.28733,0.07989
3221.22772,0.07784
3219.16811,0.07600
3217.10850,0.07429
3215.04890,0.07280
3212.98929,0.07139
3210.92968,0.06968
3208.87007,0.06795
3206.81046,0.06669
3204.75085,0.06565
3202.69125,0.06435
3200.63164,0.06308
3198.57203,0.06221
3196.51242,0.06135
3194.45281,0.06031
3192.39320,0.05918
3190.33359,0.05793
3188.27399,0.05687
3186.21438,0.05612
3184.15477,0.05526
3182.09516,0.05434
3180.03555,0.05349
3177.97594,0.05253
3175.91633,0.05155
3173.85673,0.05067
3171.79712,0.05029
3169.73751,0.05052
3167.67790,0.05061
3165.61829,0.04992
3163.55868,0.04870
3161.49907,0.04765
3159.43947,0.04707
3157.37986,0.04660
3155.32025,0.04645
3153.26064,0.04684
3151.20103,0.04724
3149.14142,0.04723
3147.08182,0.04699
3145.02221,0.04680
3142.96260,0.04683
3140.90299,0.04704
3138.84338,0.04681
3136.78377,0.04612
3134.72416,0.04581
3132.66456,0.04609
3130.60495,0.04659
3128.54534,0.04695
3126.48573,0.04698
3124.42612,0.04679
3122.36651,0.04697
3120.30690,0.04780
3118.24730,0.04849
3116.18769,0.04855
3114.12808,0.04861
3112.06847,0.04888
3110.00886,0.04919
3107.94925,0.04962
3105.88965,0.05001
3103.83004,0.05027
3101.77043,0.05054
3099.71082,0.05087
3097.65121,0.05147
3095.59160,0.05231
3093.53199,0.05295
3091.47239,0.05323
3089.41278,0.05340
3087.35317,0.05372
3085.29356,0.05418
3083.23395,0.05454
3081.17434,0.05479
3079.11473,0.05501
3077.05513,0.05484
3074.99552,0.05452
3072.93591,0.05467
3070.87630,0.05500
3068.81669,0.05524
3066.75708,0.05518
3064.69747,0.05447
3062.63787,0.05348
3060.57826,0.05249
3058.51865,0.05141
3056.45904,0.05059
3054.39943,0.05023
3052.33982,0.04992
3050.28022,0.04924
3048.22061,0.04822
3046.16100,0.04734
3044.10139,0.04682
3042.04178,0.04647
3039.98217,0.04613
3037.92256,0.04580
3035.86296,0.04548
3033.80335,0.04520
3031.74374,0.04497
3029.68413,0.04451
3027.62452,0.04372
3025.56491,0.04320
3023.50530,0.04333
3021.44570,0.04390
3019.38609,0.04457
3017.32648,0.04512
3015.26687,0.04587
3013.20726,0.04672
3011.14765,0.04735
3009.08804,0.04816
3007.02844,0.04927
3004.96883,0.05055
3002.90922,0.05216
3000.84961,0.05395
2998.79000,0.05572
2996.73039,0.05739
2994.67079,0.05908
2992.61118,0.06115
2990.55157,0.06330
2988.49196,0.06495
2986.43235,0.06625
2984.37274,0.06742
2982.31313,0.06844
2980.25353,0.06930
2978.19392,0.07000
2976.13431,0.07042
2974.07470,0.07070
2972.01509,0.07130
2969.95548,0.07194
2967.89587,0.07209
2965.83627,0.07202
2963.77666,0.07164
2961.71705,0.07069
2959.65744,0.06980
2957.59783,0.06960
2955.53822,0.06986
2953.47861,0.07005
2951.41901,0.07001
2949.35940,0.07039
2947.29979,0.07183
2945.24018,0.07389
2943.18057,0.07588
2941.12096,0.07783
2939.06136,0.07998
2937.00175,0.08219
2934.94214,0.08393
2932.88253,0.08527
2930.82292,0.08666
2928.76331,0.08788
2926.70370,0.08878
2924.64410,0.08966
2922.58449,0.09066
2920.52488,0.09206
2918.46527,0.09337
2916.40566,0.09257
2914.34605,0.08831
2912.28644,0.08206
2910.22684,0.07634
2908.16723,0.07219
2906.10762,0.06945
2904.04801,0.06764
2901.98840,0.06622
2899.92879,0.06497
2897.86918,0.06405
2895.80958,0.06329
2893.74997,0.06255
2891.69036,0.06222
2889.63075,0.06214
2887.57114,0.06201
2885.51153,0.06200
2883.45193,0.06192
2881.39232,0.06186
2879.33271,0.06233
2877.27310,0.06310
2875.21349,0.06363
2873.15388,0.06365
2871.09427,0.06291
2869.03467,0.06169
2866.97506,0.06049
2864.91545,0.05952
2862.85584,0.05896
2860.79623,0.05891
2858.73662,0.05921
2856.67701,0.05985
2854.61741,0.06103
2852.55780,0.06295
2850.49819,0.06508
2848.43858,0.06516
2846.37897,0.06185
2844.31936,0.05699
2842.25975,0.05299
2840.20015,0.05054
2838.14054,0.04879
2836.08093,0.04729
2834.02132,0.04655
2831.96171,0.04651
2829.90210,0.04643
2827.84250,0.04618
2825.78289,0.04592
2823.72328,0.04573
2821.66367,0.04561
2819.60406,0.04550
2817.54445,0.04548
2815.48484,0.04553
2813.42524,0.04550
2811.36563,0.04557
2809.30602,0.04574
2807.24641,0.04580
2805.18680,0.04593
2803.12719,0.04624
2801.06758,0.04650
2799.00798,0.04654
2796.94837,0.04635
2794.88876,0.04626
2792.82915,0.04657
2790.76954,0.04713
2788.70993,0.04750
2786.65032,0.04767
2784.59072,0.04803
2782.53111,0.04869
2780.47150,0.04918
2778.41189,0.04914
2776.35228,0.04902
2774.29267,0.04936
2772.23307,0.04996
2770.17346,0.05054
2768.11385,0.05114
2766.05424,0.05170
2763.99463,0.05220
2761.93502,0.05267
2759.87541,0.05320
2757.81581,0.05400
2755.75620,0.05504
2753.69659,0.05611
2751.63698,0.05702
2749.57737,0.05786
2747.51776,0.05892
2745.45815,0.06031
2743.39855,0.06204
2741.33894,0.06408
2739.27933,0.06627
2737.21972,0.06859
2735.16011,0.07112
2733.10050,0.07394
2731.04089,0.07710
2728.98129,0.08067
2726.92168,0.08453
2724.86207,0.08853
2722.80246,0.09274
2720.74285,0.09730
2718.68324,0.10225
2716.62364,0.10739
2714.56403,0.11264
2712.50442,0.11818
2710.44481,0.12410
2708.38520,0.13032
2706.32559,0.13676
2704.26598,0.14339
2702.20638,0.15008
2700.14677,0.15647
2698.08716,0.16252
2696.02755,0.16860
2693.96794,0.17498
2691.90833,0.18150
2689.84872,0.18808
2687.78912,0.19476
2685.72951,0.20114
2683.66990,0.20704
2681.61029,0.21303
2679.55068,0.21928
2677.49107,0.22540
2675.43146,0.23144
2673.37186,0.23775
2671.31225,0.24422
2669.25264,0.25053
2667.19303,0.25672
2665.13342,0.26293
2663.07381,0.26911
2661.01421,0.27532
2658.95460,0.28144
2656.89499,0.28728
2654.83538,0.29288
2652.77577,0.29860
2650.71616,0.30461
2648.65655,0.31044
2646.59695,0.31593
2644.53734,0.32141
2642.47773,0.32695
2640.41812,0.33266
2638.35851,0.33833
2636.29890,0.34378
2634.23929,0.34927
2632.17969,0.35472
2630.12008,0.35981
2628.06047,0.36468
2626.00086,0.36980
2623.94125,0.37497
2621.88164,0.37982
2619.82203,0.38443
2617.76243,0.38885
2615.70282,0.39325
2613.64321,0.39751
2611.58360,0.40137
2609.52399,0.40523
2607.46438,0.40906
2605.40478,0.41245
2603.34517,0.41575
2601.28556,0.41926
2599.22595,0.42272
2597.16634,0.42602
2595.10673,0.42930
2593.04712,0.43252
2590.98752,0.43523
2588.92791,0.43726
2586.86830,0.43928
2584.80869,0.44178
2582.74908,0.44447
2580.68947,0.44679
2578.62986,0.44852
2576.57026,0.45008
2574.51065,0.45207
2572.45104,0.45448
2570.39143,0.45675
2568.33182,0.45878
2566.27221,0.46093
2564.21260,0.46341
2562.15300,0.46586
2560.09339,0.46788
2558.03378,0.46960
2555.97417,0.47173
2553.91456,0.47448
2551.85495,0.47713
2549.79535,0.47981
2547.73574,0.48319
2545.67613,0.48703
2543.61652,0.49071
2541.55691,0.49397
2539.49730,0.49708
2537.43769,0.50055
2535.37809,0.50472
2533.31848,0.50926
2531.25887,0.51366
2529.19926,0.51784
2527.13965,0.52190
2525.08004,0.52613
2523.02043,0.53052
2520.96083,0.53506
2518.90122,0.53978
2516.84161,0.54438
2514.78200,0.54894
2512.72239,0.55365
2510.66278,0.55852
2508.60317,0.56365
2506.54357,0.56909
2504.48396,0.57442
2502.42435,0.57900
2500.36474,0.58315
2498.30513,0.58740
2496.24552,0.59153
2494.18592,0.59587
2492.12631,0.60081
2490.06670,0.60551
2488.00709,0.60916
2485.94748,0.61196
2483.88787,0.61460
2481.82826,0.61721
2479.76866,0.61979
2477.70905,0.62238
2475.64944,0.62442
2473.58983,0.62499
2471.53022,0.62419
2469.47061,0.62345
2467.41100,0.62300
2465.35140,0.62201
2463.29179,0.62036
2461.23218,0.61820
2459.17257,0.61563
2457.11296,0.61286
2455.05335,0.61021
2452.99374,0.60796
2450.93414,0.60584
2448.87453,0.60338
2446.81492,0.60077
2444.75531,0.59834
2442.69570,0.59650
2440.63609,0.59566
2438.57649,0.59559
2436.51688,0.59575
2434.45727,0.59566
2432.39766,0.59567
2430.33805,0.59637
2428.27844,0.59721
2426.21883,0.59777
2424.15923,0.59864
2422.09962,0.59989
2420.04001,0.60058
2417.98040,0.60027
2415.92079,0.59984
2413.86118,0.59969
2411.80157,0.59905
2409.74197,0.59793
2407.68236,0.59683
2405.62275,0.59553
2403.56314,0.59358
2401.50353,0.59114
2399.44392,0.58865
2397.38431,0.58614
2395.32471,0.58305
2393.26510,0.57946
2391.20549,0.57585
2389.14588,0.57173
2387.08627,0.56662
2385.02666,0.56082
2382.96706,0.55474
2380.90745,0.54851
2378.84784,0.54234
2376.78823,0.53611
2374.72862,0.52935
2372.66901,0.52241
2370.60940,0.51546
2368.54980,0.50803
2366.49019,0.50022
2364.43058,0.49193
2362.37097,0.48307
2360.31136,0.47426
2358.25175,0.46550
2356.19214,0.45650
2354.13254,0.44723
2352.07293,0.43767
2350.01332,0.42812
2347.95371,0.41877
2345.89410,0.40993
2343.83449,0.40133
2341.77488,0.39189
2339.71528,0.38209
2337.65567,0.37259
2335.59606,0.36298
2333.53645,0.35357
2331.47684,0.34493
2329.41723,0.33631
2327.35763,0.32734
2325.29802,0.31857
2323.23841,0.30948
2321.17880,0.29959
2319.11919,0.28984
2317.05958,0.28088
2314.99997,0.27223
2312.94037,0.26385
2310.88076,0.25587
2308.82115,0.24785
2306.76154,0.23995
2304.70193,0.23275
2302.64232,0.22609
2300.58271,0.21936
2298.52311,0.21257
2296.46350,0.20578
2294.40389,0.19911
2292.34428,0.19296
2290.28467,0.18720
2288.22506,0.18152
2286.16545,0.17594
2284.10585,0.17021
2282.04624,0.16420
2279.98663,0.15858
2277.92702,0.15408
2275.86741,0.15027
2273.80780,0.14588
2271.74820,0.14082
2269.68859,0.13603
2267.62898,0.13168
2265.56937,0.12797
2263.50976,0.12504
2261.45015,0.12185
2259.39054,0.11858
2257.33094,0.11578
2255.27133,0.11248
2253.21172,0.10859
2251.15211,0.10503
2249.09250,0.10207
2247.03289,0.09963
2244.97328,0.09770
2242.91368,0.09599
2240.85407,0.09383
2238.79446,0.09098
2236.73485,0.08820
2234.67524,0.08586
2232.61563,0.08303
2230.55602,0.08010
2228.49642,0.07844
2226.43681,0.07722
2224.37720,0.07533
2222.31759,0.07313
2220.25798,0.07073
2218.19837,0.06890
2216.13877,0.06782
2214.07916,0.06633
2212.01955,0.06457
2209.95994,0.06226
2207.90033,0.05961
2205.84072,0.05854
2203.78111,0.05883
2201.72151,0.05862
2199.66190,0.05741
2197.60229,0.05541
2195.54268,0.05332
2193.48307,0.05215
2191.42346,0.05149
2189.36385,0.05041
2187.30425,0.04940
2185.24464,0.04887
2183.18503,0.04770
2181.12542,0.04510
2179.06581,0.04288
2177.00620,0.04207
2174.94659,0.04122
2172.88699,0.04029
2170.82738,0.03968
2168.76777,0.03899
2166.70816,0.03813
2164.64855,0.03729
2162.58894,0.03659
2160.52934,0.03451
2158.46973,0.03176
2156.41012,0.03124
2154.35051,0.03130
2152.29090,0.03075
2150.23129,0.03116
2148.17168,0.03193
2146.11208,0.03187
2144.05247,0.03129
2141.99286,0.03092
2139.93325,0.03112
2137.87364,0.03113
2135.81403,0.03059
2133.75442,0.02985
2131.69482,0.02927
2129.63521,0.02957
2127.57560,0.03021
2125.51599,0.03021
2123.45638,0.02992
2121.39677,0.02999
2119.33716,0.03048
2117.27756,0.03101
2115.21795,0.03093
2113.15834,0.03016
2111.09873,0.02959
2109.03912,0.02950
2106.97951,0.02886
2104.91991,0.02766
2102.86030,0.02680
2100.80069,0.02618
2098.74108,0.02588
2096.68147,0.02593
2094.62186,0.02575
2092.56225,0.02551
2090.50265,0.02543
2088.44304,0.02537
2086.38343,0.02550
2084.32382,0.02558
2082.26421,0.02513
2080.20460,0.02439
2078.14499,0.02397
2076.08539,0.02350
2074.02578,0.02259
2071.96617,0.02221
2069.90656,0.02250
2067.84695,0.02226
2065.78734,0.02146
2063.72773,0.02132
2061.66813,0.02188
2059.60852,0.02197
2057.54891,0.02130
2055.48930,0.02067
2053.42969,0.02091
2051.37008,0.02112
2049.31048,0.02006
2047.25087,0.01882
2045.19126,0.01881
2043.13165,0.01951
2041.07204,0.01970
2039.01243,0.01891
2036.95282,0.01777
2034.89322,0.01685
2032.83361,0.01610
2030.77400,0.01569
2028.71439,0.01534
2026.65478,0.01508
2024.59517,0.01513
2022.53556,0.01569
2020.47596,0.01663
2018.41635,0.01669
2016.35674,0.01613
2014.29713,0.01609
2012.23752,0.01600
2010.17791,0.01538
2008.11830,0.01472
2006.05870,0.01450
2003.99909,0.01438
2001.93948,0.01383
1999.87987,0.01347
1997.82026,0.01412
1995.76065,0.01519
1993.70105,0.01559
1991.64144,0.01570
1989.58183,0.01573
1987.52222,0.01535
1985.46261,0.01518
1983.40300,0.01548
1981.34339,0.01521
1979.28379,0.01396
1977.22418,0.01314
1975.16457,0.01331
1973.10496,0.01367
1971.04535,0.01396
1968.98574,0.01392
1966.92613,0.01331
1964.86653,0.01212
1962.80692,0.01103
1960.74731,0.01057
1958.68770,0.01055
1956.62809,0.01116
1954.56848,0.01232
1952.50887,0.01316
1950.44927,0.01357
1948.38966,0.01409
1946.33005,0.01425
1944.27044,0.01317
1942.21083,0.01189
1940.15122,0.01200
1938.09162,0.01271
1936.03201,0.01281
1933.97240,0.01293
1931.91279,0.01361
1929.85318,0.01391
1927.79357,0.01362
1925.73396,0.01327
1923.67436,0.01286
1921.61475,0.01277
1919.55514,0.01318
1917.49553,0.01353
1915.43592,0.01371
1913.37631,0.01407
1911.31670,0.01432
1909.25710,0.01405
1907.19749,0.01369
1905.13788,0.01371
1903.07827,0.01388
1901.01866,0.01384
1898.95905,0.01370
1896.89944,0.01369
1894.83984,0.01378
1892.78023,0.01388
1890.72062,0.01382
1888.66101,0.01359
1886.60140,0.01371
1884.54179,0.01405
1882.48219,0.01401
1880.42258,0.01388
1878.36297,0.01393
1876.30336,0.01392
1874.24375,0.01395
1872.18414,0.01393
1870.12453,0.01363
1868.06493,0.01347
1866.00532,0.01367
1863.94571,0.01369
1861.88610,0.01348
1859.82649,0.01345
1857.76688,0.01351
1855.70727,0.01344
1853.64767,0.01322
1851.58806,0.01310
1849.52845,0.01348
1847.46884,0.01397
1845.40923,0.01399
1843.34962,0.01379
1841.29002,0.01367
1839.23041,0.01356
1837.17080,0.01374
1835.11119,0.01398
1833.05158,0.01388
1830.99197,0.01390
1828.93236,0.01408
1826.87276,0.01407
1824.81315,0.01410
1822.75354,0.01438
1820.69393,0.01444
1818.63432,0.01403
1816.57471,0.01372
1814.51510,0.01405
1812.45550,0.01444
1810.39589,0.01456
1808.33628,0.01465
1806.27667,0.01466
1804.21706,0.01468
1802.15745,0.01482
1800.09784,0.01509
1798.03824,0.01539
1795.97863,0.01566
1793.91902,0.01585
1791.85941,0.01608
1789.79980,0.01622
1787.74019,0.01612
1785.68059,0.01605
1783.62098,0.01629
1781.56137,0.01658
1779.50176,0.01660
1777.44215,0.01651
1775.38254,0.01657
1773.32293,0.01690
1771.26333,0.01726
1769.20372,0.01737
1767.14411,0.01739
1765.08450,0.01754
1763.02489,0.01771
1760.96528,0.01790
1758.90567,0.01813
1756.84607,0.01822
1754.78646,0.01828
1752.72685,0.01843
1750.66724,0.01879
1748.60763,0.01920
1746.54802,0.01950
1744.48841,0.01963
1742.42881,0.01978
1740.36920,0.02014
1738.30959,0.02071
1736.24998,0.02122
1734.19037,0.02173
1732.13076,0.02237
1730.07116,0.02290
1728.01155,0.02345
1725.95194,0.02413
1723.89233,0.02512
1721.83272,0.02620
1719.77311,0.02722
1717.71350,0.02855
1715.65390,0.03054
1713.59429,0.03286
1711.53468,0.03571
1709.47507,0.03971
1707.41546,0.04588
1705.35585,0.05608
1703.29624,0.06900
1701.23664,0.08579
1699.17703,0.10465
1697.11742,0.11402
1695.05781,0.11687
1692.99820,0.11922
1690.93859,0.12279
1688.87898,0.12811
1686.81938,0.13403
1684.75977,0.14186
1682.70016,0.15122
1680.64055,0.15829
1678.58094,0.16438
1676.52133,0.17135
1674.46173,0.17992
1672.40212,0.18832
1670.34251,0.19765
1668.28290,0.20868
1666.22329,0.21810
1664.16368,0.22764
1662.10407,0.24002
1660.04447,0.25289
1657.98486,0.26436
1655.92525,0.27487
1653.86564,0.29040
1651.80603,0.31132
1649.74642,0.32357
1647.68681,0.33546
1645.62721,0.35266
1643.56760,0.36796
1641.50799,0.38142
1639.44838,0.39534
1637.38877,0.41127
1635.32916,0.43335
1633.26955,0.45412
1631.20995,0.46943
1629.15034,0.48541
1627.09073,0.50263
1625.03112,0.51843
1622.97151,0.53304
1620.91190,0.54314
1618.85230,0.54627
1616.79269,0.54312
1614.73308,0.53314
1612.67347,0.51784
1610.61386,0.49705
1608.55425,0.47077
1606.49464,0.44083
1604.43504,0.40911
1602.37543,0.37684
1600.31582,0.34595
1598.25621,0.31812
1596.19660,0.29354
1594.13699,0.27214
1592.07738,0.25435
1590.01778,0.23984
1587.95817,0.22788
1585.89856,0.21784
1583.83895,0.20932
1581.77934,0.20219
1579.71973,0.19652
1577.66012,0.19181
1575.60052,0.18715
1573.54091,0.18337
1571.48130,0.18089
1569.42169,0.17992
1567.36208,0.18055
1565.30247,0.18207
1563.24287,0.18370
1561.18326,0.18504
1559.12365,0.18678
1557.06404,0.18781
1555.00443,0.18712
1552.94482,0.18594
1550.88521,0.18494
1548.82561,0.18452
1546.76600,0.18500
1544.70639,0.18661
1542.64678,0.18967
1540.58717,0.19492
1538.52756,0.20091
1536.46795,0.20430
1534.40835,0.20749
1532.34874,0.21218
1530.28913,0.21669
1528.22952,0.22094
1526.16991,0.22539
1524.11030,0.22920
1522.05069,0.23397
1519.99109,0.24201
1517.93148,0.25314
1515.87187,0.26461
1513.81226,0.26725
1511.75265,0.25717
1509.69304,0.23972
1507.63344,0.21783
1505.57383,0.19521
1503.51422,0.18121
1501.45461,0.17157
1499.39500,0.16290
1497.33539,0.15573
1495.27578,0.15135
1493.21618,0.14993
1491.15657,0.15133
1489.09696,0.15631
1487.03735,0.16413
1484.97774,0.17334
1482.91813,0.18419
1480.85852,0.19687
1478.79892,0.20986
1476.73931,0.22281
1474.67970,0.23649
1472.62009,0.25171
1470.56048,0.26546
1468.50087,0.27536
1466.44126,0.28472
1464.38166,0.29531
1462.32205,0.30443
1460.26244,0.31140
1458.20283,0.32010
1456.14322,0.33196
1454.08361,0.34087
1452.02401,0.34704
1449.96440,0.35258
1447.90479,0.35741
1445.84518,0.36109
1443.78557,0.36349
1441.72596,0.36507
1439.66635,0.36527
1437.60675,0.36233
1435.54714,0.35464
1433.48753,0.34359
1431.42792,0.32995
1429.36831,0.31382
1427.30870,0.29796
1425.24909,0.28328
1423.18949,0.26968
1421.12988,0.25797
1419.07027,0.24745
1417.01066,0.23937
1414.95105,0.23452
1412.89144,0.23139
1410.83183,0.22926
1408.77223,0.22764
1406.71262,0.22575
1404.65301,0.22271
1402.59340,0.21830
1400.53379,0.21247
1398.47418,0.20499
1396.41458,0.19644
1394.35497,0.18733
1392.29536,0.17887
1390.23575,0.17170
1388.17614,0.16547
1386.11653,0.16076
1384.05692,0.15798
1381.99732,0.15628
1379.93771,0.15499
1377.87810,0.15405
1375.81849,0.15381
1373.75888,0.15458
1371.69927,0.15605
1369.63966,0.15755
1367.58006,0.15856
1365.52045,0.15870
1363.46084,0.15804
1361.40123,0.15702
1359.34162,0.15609
1357.28201,0.15550
1355.22240,0.15515
1353.16280,0.15477
1351.10319,0.15434
1349.04358,0.15396
1346.98397,0.15357
1344.92436,0.15328
1342.86475,0.15330
1340.80515,0.15361
1338.74554,0.15390
1336.68593,0.15384
1334.62632,0.15319
1332.56671,0.15173
1330.50710,0.14935
1328.44749,0.14617
1326.38789,0.14251
1324.32828,0.13872
1322.26867,0.13508
1320.20906,0.13159
1318.14945,0.12815
1316.08984,0.12479
1314.03023,0.12161
1311.97063,0.11860
1309.91102,0.11575
1307.85141,0.11310
1305.79180,0.11072
1303.73219,0.10868
1301.67258,0.10710
1299.61297,0.10599
1297.55337,0.10499
1295.49376,0.10379
1293.43415,0.10232
1291.37454,0.10080
1289.31493,0.09969
1287.25532,0.09919
1285.19572,0.09916
1283.13611,0.09967
1281.07650,0.10079
1279.01689,0.10273
1276.95728,0.10595
1274.89767,0.11077
1272.83806,0.11727
1270.77846,0.12534
1268.71885,0.13447
1266.65924,0.14381
1264.59963,0.15235
1262.54002,0.15931
1260.48041,0.16438
1258.42080,0.16750
1256.36120,0.16870
1254.30159,0.16839
1252.24198,0.16716
1250.18237,0.16554
1248.12276,0.16395
1246.06315,0.16302
1244.00354,0.16346
1241.94394,0.16566
1239.88433,0.16969
1237.82472,0.17549
1235.76511,0.18284
1233.70550,0.19109
1231.64589,0.19929
1229.58629,0.20653
1227.52668,0.21231
1225.46707,0.21697
1223.40746,0.22112
1221.34785,0.22496
1219.28824,0.22856
1217.22863,0.23193
1215.16903,0.23471
1213.10942,0.23650
1211.04981,0.23713
1208.99020,0.23665
1206.93059,0.23506
1204.87098,0.23242
1202.81137,0.22883
1200.75177,0.22413
1198.69216,0.21814
1196.63255,0.21094
1194.57294,0.20281
1192.51333,0.19417
1190.45372,0.18539
1188.39411,0.17679
1186.33451,0.16870
1184.27490,0.16162
1182.21529,0.15602
1180.15568,0.15216
1178.09607,0.14992
1176.03646,0.14872
1173.97686,0.14776
1171.91725,0.14635
1169.85764,0.14431
1167.79803,0.14197
1165.73842,0.13966
1163.67881,0.13732
1161.61920,0.13479
1159.55960,0.13196
1157.49999,0.12862
1155.44038,0.12460
1153.38077,0.12004
1151.32116,0.11529
1149.26155,0.11065
1147.20194,0.10627
1145.14234,0.10226
1143.08273,0.09874
1141.02312,0.09578
1138.96351,0.09334
1136.90390,0.09124
1134.84429,0.08931
1132.78468,0.08756
1130.72508,0.08611
1128.66547,0.08488
1126.60586,0.08369
1124.54625,0.08252
1122.48664,0.08148
1120.42703,0.08070
1118.36743,0.08014
1116.30782,0.07983
1114.24821,0.07978
1112.18860,0.08000
1110.12899,0.08033
1108.06938,0.08053
1106.00977,0.08046
1103.95017,0.08013
1101.89056,0.07972
1099.83095,0.07939
1097.77134,0.07930
1095.71173,0.07956
1093.65212,0.08009
1091.59251,0.08090
1089.53291,0.08214
1087.47330,0.08361
1085.41369,0.08520
1083.35408,0.08705
1081.29447,0.08903
1079.23486,0.09095
1077.17525,0.09285
1075.11565,0.09478
1073.05604,0.09680
1070.99643,0.09887
1068.93682,0.10088
1066.87721,0.10276
1064.81760,0.10446
1062.75800,0.10585
1060.69839,0.10692
1058.63878,0.10785
1056.57917,0.10878
1054.51956,0.10962
1052.45995,0.11030
1050.40034,0.11066
1048.34074,0.11051
1046.28113,0.10979
1044.22152,0.10857
1042.16191,0.10676
1040.10230,0.10434
1038.04269,0.10159
1035.98308,0.09881
1033.92348,0.09616
1031.86387,0.09372
1029.80426,0.09143
1027.74465,0.08934
1025.68504,0.08758
1023.62543,0.08626
1021.56582,0.08550
1019.50622,0.08521
1017.44661,0.08520
1015.38700,0.08531
1013.32739,0.08560
1011.26778,0.08636
1009.20817,0.08780
1007.14857,0.08987
1005.08896,0.09245
1003.02935,0.09528
1000.96974,0.09775
998.91013,0.09928
996.85052,0.09968
994.79091,0.09894
992.73131,0.09724
990.67170,0.09493
988.61209,0.09258
986.55248,0.09088
984.49287,0.09021
982.43326,0.09059
980.37365,0.09179
978.31405,0.09321
976.25444,0.09422
974.19483,0.09445
972.13522,0.09384
970.07561,0.09259
968.01600,0.09114
965.95639,0.08995
963.89679,0.08922
961.83718,0.08882
959.77757,0.08857
957.71796,0.08846
955.65835,0.08830
953.59874,0.08782
951.53914,0.08709
949.47953,0.08632
947.41992,0.08544
945.36031,0.08434
943.30070,0.08323
941.24109,0.08225
939.18148,0.08137
937.12188,0.08067
935.06227,0.08014
933.00266,0.07966
930.94305,0.07918
928.88344,0.07858
926.82383,0.07773
924.76422,0.07666
922.70462,0.07543
920.64501,0.07410
918.58540,0.07272
916.52579,0.07127
914.46618,0.06970
912.40657,0.06816
910.34696,0.06683
908.28736,0.06570
906.22775,0.06475
904.16814,0.06406
902.10853,0.06352
900.04892,0.06292
897.98931,0.06232
895.92971,0.06188
893.87010,0.06155
891.81049,0.06123
889.75088,0.06097
887.69127,0.06075
885.63166,0.06047
883.57205,0.06010
881.51245,0.05968
879.45284,0.05941
877.39323,0.05928
875.33362,0.05900
873.27401,0.05850
871.21440,0.05790
869.15479,0.05732
867.09519,0.05674
865.03558,0.05611
862.97597,0.05572
860.91636,0.05569
858.85675,0.05601
856.79714,0.05667
854.73753,0.05754
852.67793,0.05845
850.61832,0.05918
848.55871,0.05952
846.49910,0.05943
844.43949,0.05907
842.37988,0.05874
840.32028,0.05866
838.26067,0.05874
836.20106,0.05889
834.14145,0.05918
832.08184,0.05957
830.02223,0.05988
827.96262,0.05994
825.90302,0.05960
823.84341,0.05890
821.78380,0.05791
819.72419,0.05682
817.66458,0.05588
815.60497,0.05515
813.54536,0.05459
811.48576,0.05426
809.42615,0.05413
807.36654,0.05398
805.30693,0.05380
803.24732,0.05366
801.18771,0.05361
799.12810,0.05371
797.06850,0.05383
795.00889,0.05386
792.94928,0.05384
790.88967,0.05398
788.83006,0.05427
786.77045,0.05465
784.71085,0.05530
782.65124,0.05613
780.59163,0.05688
778.53202,0.05751
776.47241,0.05820
774.41280,0.05906
772.35319,0.06011
770.29359,0.06137
768.23398,0.06268
766.17437,0.06370
764.11476,0.06436
762.05515,0.06480
759.99554,0.06521
757.93593,0.06573
755.87633,0.06637
753.81672,0.06711
751.75711,0.06786
749.69750,0.06858
747.63789,0.06941
745.57828,0.07045
743.51867,0.07165
741.45907,0.07294
739.39946,0.07434
737.33985,0.07606
735.28024,0.07801
733.22063,0.07974
731.16102,0.08123
729.10142,0.08267
727.04181,0.08406
724.98220,0.08536
722.92259,0.08661
720.86298,0.08768
718.80337,0.08839
716.74376,0.08886
714.68416,0.08946
712.62455,0.09022
710.56494,0.09104
708.50533,0.09198
706.44572,0.09315
704.38611,0.09441
702.32650,0.09539
700.26690,0.09605
698.20729,0.09672
696.14768,0.09735
694.08807,0.09764
692.02846,0.09771
689.96885,0.09777
687.90924,0.09761
685.84964,0.09718
683.79003,0.09680
681.73042,0.09669
679.67081,0.09668
677.61120,0.09654
675.55159,0.09630
673.49199,0.09615
671.43238,0.09609
669.37277,0.09621
667.31316,0.09685
665.25355,0.09755
663.19394,0.09812
661.13433,0.09894
659.07473,0.10005
657.01512,0.10138
654.95551,0.10306
652.89590,0.10494
650.83629,0.10654
648.77668,0.10786
646.71707,0.10930
644.65747,0.11081
642.59786,0.11206
640.53825,0.11313
638.47864,0.11417
636.41903,0.11530
634.35942,0.11656
632.29981,0.11766
630.24021,0.11857
628.18060,0.11942
626.12099,0.12011
624.06138,0.12051
622.00177,0.12090
619.94216,0.12172
617.88256,0.12310
615.82295,0.12472
613.76334,0.12628
611.70373,0.12760
609.64412,0.12845
607.58451,0.12868
605.52490,0.12850
603.46530,0.12833
601.40569,0.12839
599.34608,0.12847
597.28647,0.12859
595.22686,0.12877
593.16725,0.12881
591.10764,0.12909
589.04804,0.12981
586.98843,0.13075
584.92882,0.13173
582.86921,0.13247
580.80960,0.13303
578.74999,0.13368
576.69039,0.13455
574.63078,0.13588
572.57117,0.13755
570.51156,0.13893
568.45195,0.14031
566.39234,0.14244
564.33273,0.14513
562.27313,0.14812
560.21352,0.15173
558.15391,0.15556
556.09430,0.15906
554.03469,0.16252
551.97508,0.16566
549.91547,0.16766
547.85587,0.16883
545.79626,0.16990
543.73665,0.17090
541.67704,0.17178
539.61743,0.17246
537.55782,0.17272
535.49821,0.17299
533.43861,0.17369
531.37900,0.17455
529.31939,0.17553
527.25978,0.17658
525.20017,0.17735
523.14056,0.17806
521.08096,0.17908
519.02135,0.18036
516.96174,0.18150
514.90213,0.18243
512.84252,0.18324
510.78291,0.18404
508.72330,0.18497
506.66370,0.18589
504.60409,0.18653
502.54448,0.18721
500.48487,0.18775
498.42526,0.18779
496.36565,0.18828
494.30604,0.18935
492.24644,0.18982
490.18683,0.18972
488.12722,0.18999
486.06761,0.19063
484.00800,0.19130
481.94839,0.19181
479.88878,0.19193
477.82918,0.19188
475.76957,0.19159
473.70996,0.19113
471.65035,0.19123
469.59074,0.19147
467.53113,0.19133
465.47153,0.19090
463.41192,0.19028
461.35231,0.18988
459.29270,0.18966
457.23309,0.18961
455.17348,0.18984
453.11387,0.18979
451.05427,0.18908
448.99466,0.18843
446.93505,0.18848
444.87544,0.18866
442.81583,0.18848
440.75622,0.18833
438.69661,0.18823
436.63701,0.18768
434.57740,0.18705
432.51779,0.18723
430.45818,0.18810
428.39857,0.18940
426.33896,0.19067
424.27935,0.19125
422.21975,0.19061
420.16014,0.18866
418.10053,0.18744
416.04092,0.18744
413.98131,0.18677
411.92170,0.18570
409.86210,0.18497
407.80249,0.18414
405.74288,0.18298
403.68327,0.18151
401.62366,0.17957
399.56405,0.17848
