3997.65486	0.03809
3995.59527	0.03867
3993.53569	0.03884
3991.47610	0.03851
3989.41652	0.03846
3987.35693	0.03879
3985.29735	0.03882
3983.23776	0.03857
3981.17817	0.03844
3979.11859	0.03852
3977.05900	0.03871
3974.99942	0.03871
3972.93983	0.03852
3970.88025	0.03833
3968.82066	0.03815
3966.76108	0.03807
3964.70149	0.03804
3962.64191	0.03792
3960.58232	0.03788
3958.52274	0.03787
3956.46315	0.03772
3954.40357	0.03743
3952.34398	0.03721
3950.28440	0.03758
3948.22481	0.03824
3946.16523	0.03814
3944.10564	0.03741
3942.04606	0.03713
3939.98647	0.03756
3937.92689	0.03802
3935.86730	0.03807
3933.80772	0.03794
3931.74813	0.03794
3929.68855	0.03805
3927.62896	0.03815
3925.56937	0.03810
3923.50979	0.03772
3921.45020	0.03701
3919.39062	0.03626
3917.33103	0.03604
3915.27145	0.03647
3913.21186	0.03696
3911.15228	0.03721
3909.09269	0.03737
3907.03311	0.03749
3904.97352	0.03748
3902.91394	0.03740
3900.85435	0.03739
3898.79477	0.03768
3896.73518	0.03778
3894.67560	0.03717
3892.61601	0.03655
3890.55643	0.03669
3888.49684	0.03662
3886.43726	0.03558
3884.37767	0.03456
3882.31809	0.03448
3880.25850	0.03500
3878.19892	0.03528
3876.13933	0.03509
3874.07974	0.03515
3872.02016	0.03573
3869.96057	0.03591
3867.90099	0.03547
3865.84140	0.03489
3863.78182	0.03461
3861.72223	0.03523
3859.66265	0.03605
3857.60306	0.03598
3855.54348	0.03515
3853.48389	0.03441
3851.42431	0.03425
3849.36472	0.03431
3847.30514	0.03443
3845.24555	0.03450
3843.18597	0.03427
3841.12638	0.03342
3839.06680	0.03240
3837.00721	0.03231
3834.94763	0.03311
3832.88804	0.03393
3830.82846	0.03452
3828.76887	0.03453
3826.70929	0.03374
3824.64970	0.03273
3822.59012	0.03201
3820.53053	0.03203
3818.47094	0.03293
3816.41136	0.03390
3814.35177	0.03458
3812.29219	0.03500
3810.23260	0.03479
3808.17302	0.03376
3806.11343	0.03257
3804.05385	0.03173
3801.99426	0.03154
3799.93468	0.03218
3797.87509	0.03275
3795.81551	0.03308
3793.75592	0.03354
3791.69634	0.03388
3789.63675	0.03410
3787.57717	0.03436
3785.51758	0.03415
3783.45800	0.03337
3781.39841	0.03300
3779.33883	0.03355
3777.27924	0.03422
3775.21966	0.03409
3773.16007	0.03319
3771.10049	0.03208
3769.04090	0.03143
3766.98132	0.03158
3764.92173	0.03213
3762.86214	0.03239
3760.80256	0.03219
3758.74297	0.03236
3756.68339	0.03303
3754.62380	0.03296
3752.56422	0.03178
3750.50463	0.03072
3748.44505	0.03106
3746.38546	0.03247
3744.32588	0.03409
3742.26629	0.03482
3740.20671	0.03466
3738.14712	0.03361
3736.08754	0.03177
3734.02795	0.03069
3731.96837	0.03119
3729.90878	0.03215
3727.84920	0.03260
3725.78961	0.03247
3723.73003	0.03230
3721.67044	0.03221
3719.61086	0.03219
3717.55127	0.03255
3715.49169	0.03288
3713.43210	0.03231
3711.37251	0.03133
3709.31293	0.03128
3707.25334	0.03214
3705.19376	0.03238
3703.13417	0.03220
3701.07459	0.03288
3699.01500	0.03407
3696.95542	0.03445
3694.89583	0.03377
3692.83625	0.03277
3690.77666	0.03244
3688.71708	0.03294
3686.65749	0.03356
3684.59791	0.03393
3682.53832	0.03407
3680.47874	0.03433
3678.41915	0.03467
3676.35957	0.03470
3674.29998	0.03448
3672.24040	0.03472
3670.18081	0.03570
3668.12123	0.03718
3666.06164	0.03813
3664.00206	0.03825
3661.94247	0.03825
3659.88289	0.03870
3657.82330	0.03960
3655.76371	0.04099
3653.70413	0.04218
3651.64454	0.04183
3649.58496	0.04035
3647.52537	0.04061
3645.46579	0.04285
3643.40620	0.04514
3641.34662	0.04676
3639.28703	0.04767
3637.22745	0.04800
3635.16786	0.04828
3633.10828	0.04885
3631.04869	0.04958
3628.98911	0.05053
3626.92952	0.05154
3624.86994	0.05218
3622.81035	0.05231
3620.75077	0.05249
3618.69118	0.05348
3616.63160	0.05496
3614.57201	0.05649
3612.51243	0.05770
3610.45284	0.05805
3608.39326	0.05847
3606.33367	0.05991
3604.27408	0.06147
3602.21450	0.06233
3600.15491	0.06324
3598.09533	0.06472
3596.03574	0.06620
3593.97616	0.06746
3591.91657	0.06880
3589.85699	0.07015
3587.79740	0.07217
3585.73782	0.07422
3583.67823	0.07513
3581.61865	0.07537
3579.55906	0.07571
3577.49948	0.07653
3575.43989	0.07800
3573.38031	0.07969
3571.32072	0.08091
3569.26114	0.08165
3567.20155	0.08256
3565.14197	0.08380
3563.08238	0.08493
3561.02280	0.08597
3558.96321	0.08722
3556.90363	0.08888
3554.84404	0.09065
3552.78446	0.09206
3550.72487	0.09317
3548.66528	0.09439
3546.60570	0.09582
3544.54611	0.09697
3542.48653	0.09779
3540.42694	0.09887
3538.36736	0.10026
3536.30777	0.10151
3534.24819	0.10246
3532.18860	0.10334
3530.12902	0.10451
3528.06943	0.10590
3526.00985	0.10750
3523.95026	0.10931
3521.89068	0.11087
3519.83109	0.11187
3517.77151	0.11264
3515.71192	0.11359
3513.65234	0.11483
3511.59275	0.11612
3509.53317	0.11723
3507.47358	0.11824
3505.41400	0.11918
3503.35441	0.12015
3501.29483	0.12146
3499.23524	0.12306
3497.17565	0.12447
3495.11607	0.12547
3493.05648	0.12652
3490.99690	0.12808
3488.93731	0.12972
3486.87773	0.13072
3484.81814	0.13126
3482.75856	0.13196
3480.69897	0.13294
3478.63939	0.13411
3476.57980	0.13552
3474.52022	0.13696
3472.46063	0.13815
3470.40105	0.13897
3468.34146	0.13955
3466.28188	0.14037
3464.22229	0.14172
3462.16271	0.14325
3460.10312	0.14464
3458.04354	0.14617
3455.98395	0.14761
3453.92437	0.14845
3451.86478	0.14895
3449.80520	0.14962
3447.74561	0.15069
3445.68603	0.15216
3443.62644	0.15361
3441.56685	0.15471
3439.50727	0.15556
3437.44768	0.15648
3435.38810	0.15785
3433.32851	0.15976
3431.26893	0.16169
3429.20934	0.16322
3427.14976	0.16426
3425.09017	0.16501
3423.03059	0.16589
3420.97100	0.16682
3418.91142	0.16801
3416.85183	0.16949
3414.79225	0.17080
3412.73266	0.17186
3410.67308	0.17297
3408.61349	0.17398
3406.55391	0.17468
3404.49432	0.17570
3402.43474	0.17748
3400.37515	0.17922
3398.31557	0.18032
3396.25598	0.18100
3394.19640	0.18204
3392.13681	0.18326
3390.07723	0.18440
3388.01764	0.18564
3385.95805	0.18662
3383.89847	0.18737
3381.83888	0.18858
3379.77930	0.19021
3377.71971	0.19183
3375.66013	0.19336
3373.60054	0.19485
3371.54096	0.19629
3369.48137	0.19788
3367.42179	0.19951
3365.36220	0.20129
3363.30262	0.20350
3361.24303	0.20542
3359.18345	0.20669
3357.12386	0.20822
3355.06428	0.21022
3353.00469	0.21212
3350.94511	0.21438
3348.88552	0.21722
3346.82594	0.21975
3344.76635	0.22158
3342.70677	0.22330
3340.64718	0.22528
3338.58760	0.22732
3336.52801	0.22953
3334.46842	0.23239
3332.40884	0.23563
3330.34925	0.23849
3328.28967	0.24095
3326.23008	0.24362
3324.17050	0.24669
3322.11091	0.24987
3320.05133	0.25282
3317.99174	0.25560
3315.93216	0.25845
3313.87257	0.26135
3311.81299	0.26446
3309.75340	0.26811
3307.69382	0.27189
3305.63423	0.27526
3303.57465	0.27820
3301.51506	0.28087
3299.45548	0.28380
3297.39589	0.28735
3295.33631	0.29110
3293.27672	0.29432
3291.21714	0.29644
3289.15755	0.29792
3287.09797	0.29972
3285.03838	0.30158
3282.97880	0.30270
3280.91921	0.30344
3278.85962	0.30428
3276.80004	0.30478
3274.74045	0.30447
3272.68087	0.30350
3270.62128	0.30205
3268.56170	0.29972
3266.50211	0.29663
3264.44253	0.29351
3262.38294	0.29040
3260.32336	0.28681
3258.26377	0.28299
3256.20419	0.27951
3254.14460	0.27624
3252.08502	0.27276
3250.02543	0.26931
3247.96585	0.26614
3245.90626	0.26267
3243.84668	0.25884
3241.78709	0.25517
3239.72751	0.25156
3237.66792	0.24838
3235.60834	0.24620
3233.54875	0.24412
3231.48917	0.24129
3229.42958	0.23861
3227.36999	0.23672
3225.31041	0.23449
3223.25082	0.23134
3221.19124	0.22813
3219.13165	0.22558
3217.07207	0.22396
3215.01248	0.22298
3212.95290	0.22172
3210.89331	0.21968
3208.83373	0.21739
3206.77414	0.21526
3204.71456	0.21295
3202.65497	0.21059
3200.59539	0.20872
3198.53580	0.20713
3196.47622	0.20547
3194.41663	0.20353
3192.35705	0.20110
3190.29746	0.19846
3188.23788	0.19588
3186.17829	0.19345
3184.11871	0.19109
3182.05912	0.18874
3179.99954	0.18650
3177.93995	0.18414
3175.88037	0.18155
3173.82078	0.17898
3171.76119	0.17653
3169.70161	0.17414
3167.64202	0.17166
3165.58244	0.16916
3163.52285	0.16687
3161.46327	0.16470
3159.40368	0.16245
3157.34410	0.16008
3155.28451	0.15775
3153.22493	0.15558
3151.16534	0.15356
3149.10576	0.15164
3147.04617	0.14968
3144.98659	0.14761
3142.92700	0.14576
3140.86742	0.14418
3138.80783	0.14250
3136.74825	0.14072
3134.68866	0.13908
3132.62908	0.13777
3130.56949	0.13688
3128.50991	0.13615
3126.45032	0.13528
3124.39074	0.13427
3122.33115	0.13333
3120.27156	0.13256
3118.21198	0.13181
3116.15239	0.13107
3114.09281	0.13064
3112.03322	0.13068
3109.97364	0.13087
3107.91405	0.13070
3105.85447	0.13019
3103.79488	0.12992
3101.73530	0.13013
3099.67571	0.13041
3097.61613	0.13027
3095.55654	0.13018
3093.49696	0.13081
3091.43737	0.13178
3089.37779	0.13243
3087.31820	0.13275
3085.25862	0.13319
3083.19903	0.13360
3081.13945	0.13348
3079.07986	0.13303
3077.02028	0.13287
3074.96069	0.13288
3072.90111	0.13249
3070.84152	0.13180
3068.78194	0.13130
3066.72235	0.13104
3064.66276	0.13044
3062.60318	0.12931
3060.54359	0.12816
3058.48401	0.12714
3056.42442	0.12589
3054.36484	0.12428
3052.30525	0.12264
3050.24567	0.12124
3048.18608	0.11998
3046.12650	0.11870
3044.06691	0.11731
3042.00733	0.11570
3039.94774	0.11396
3037.88816	0.11250
3035.82857	0.11172
3033.76899	0.11092
3031.70940	0.10933
3029.64982	0.10741
3027.59023	0.10581
3025.53065	0.10457
3023.47106	0.10324
3021.41148	0.10193
3019.35189	0.10112
3017.29231	0.10062
3015.23272	0.09994
3013.17313	0.09919
3011.11355	0.09875
3009.05396	0.09834
3006.99438	0.09753
3004.93479	0.09684
3002.87521	0.09685
3000.81562	0.09739
2998.75604	0.09791
2996.69645	0.09822
2994.63687	0.09889
2992.57728	0.10002
2990.51770	0.10153
2988.45811	0.10368
2986.39853	0.10627
2984.33894	0.10908
2982.27936	0.11203
2980.21977	0.11484
2978.16019	0.11748
2976.10060	0.12036
2974.04102	0.12346
2971.98143	0.12668
2969.92185	0.13008
2967.86226	0.13333
2965.80268	0.13612
2963.74309	0.13840
2961.68351	0.13988
2959.62392	0.14034
2957.56433	0.14009
2955.50475	0.13927
2953.44516	0.13783
2951.38558	0.13607
2949.32599	0.13472
2947.26641	0.13459
2945.20682	0.13588
2943.14724	0.13842
2941.08765	0.14218
2939.02807	0.14685
2936.96848	0.15182
2934.90890	0.15680
2932.84931	0.16183
2930.78973	0.16688
2928.73014	0.17161
2926.67056	0.17554
2924.61097	0.17842
2922.55139	0.17986
2920.49180	0.17957
2918.43222	0.17723
2916.37263	0.17185
2914.31305	0.16304
2912.25346	0.15274
2910.19388	0.14351
2908.13429	0.13645
2906.07471	0.13153
2904.01512	0.12799
2901.95553	0.12505
2899.89595	0.12235
2897.83636	0.11998
2895.77678	0.11802
2893.71719	0.11597
2891.65761	0.11374
2889.59802	0.11215
2887.53844	0.11134
2885.47885	0.11083
2883.41927	0.11056
2881.35968	0.11084
2879.30010	0.11159
2877.24051	0.11238
2875.18093	0.11284
2873.12134	0.11255
2871.06176	0.11126
2869.00217	0.10949
2866.94259	0.10789
2864.88300	0.10671
2862.82342	0.10656
2860.76383	0.10815
2858.70425	0.11152
2856.64466	0.11566
2854.58508	0.11924
2852.52549	0.12173
2850.46590	0.12212
2848.40632	0.11814
2846.34673	0.10971
2844.28715	0.10021
2842.22756	0.09265
2840.16798	0.08752
2838.10839	0.08398
2836.04881	0.08117
2833.98922	0.07893
2831.92964	0.07725
2829.87005	0.07592
2827.81047	0.07499
2825.75088	0.07427
2823.69130	0.07355
2821.63171	0.07295
2819.57213	0.07237
2817.51254	0.07157
2815.45296	0.07063
2813.39337	0.06988
2811.33379	0.06931
2809.27420	0.06873
2807.21462	0.06803
2805.15503	0.06740
2803.09545	0.06705
2801.03586	0.06676
2798.97628	0.06629
2796.91669	0.06588
2794.85710	0.06563
2792.79752	0.06512
2790.73793	0.06439
2788.67835	0.06384
2786.61876	0.06340
2784.55918	0.06283
2782.49959	0.06222
2780.44001	0.06183
2778.38042	0.06172
2776.32084	0.06147
2774.26125	0.06085
2772.20167	0.06016
2770.14208	0.05968
2768.08250	0.05935
2766.02291	0.05905
2763.96333	0.05877
2761.90374	0.05836
2759.84416	0.05777
2757.78457	0.05710
2755.72499	0.05650
2753.66540	0.05615
2751.60582	0.05607
2749.54623	0.05600
2747.48665	0.05575
2745.42706	0.05549
2743.36747	0.05518
2741.30789	0.05458
2739.24830	0.05398
2737.18872	0.05387
2735.12913	0.05391
2733.06955	0.05362
2731.00996	0.05312
2728.95038	0.05268
2726.89079	0.05239
2724.83121	0.05207
2722.77162	0.05152
2720.71204	0.05095
2718.65245	0.05064
2716.59287	0.05042
2714.53328	0.05014
2712.47370	0.05002
2710.41411	0.04998
2708.35453	0.04979
2706.29494	0.04940
2704.23536	0.04889
2702.17577	0.04862
2700.11619	0.04855
2698.05660	0.04831
2695.99702	0.04797
2693.93743	0.04767
2691.87785	0.04745
2689.81826	0.04746
2687.75867	0.04747
2685.69909	0.04733
2683.63950	0.04723
2681.57992	0.04707
2679.52033	0.04678
2677.46075	0.04644
2675.40116	0.04605
2673.34158	0.04557
2671.28199	0.04519
2669.22241	0.04498
2667.16282	0.04501
2665.10324	0.04538
2663.04365	0.04568
2660.98407	0.04557
2658.92448	0.04537
2656.86490	0.04521
2654.80531	0.04505
2652.74573	0.04494
2650.68614	0.04480
2648.62656	0.04455
2646.56697	0.04421
2644.50739	0.04398
2642.44780	0.04399
2640.38822	0.04404
2638.32863	0.04364
2636.26904	0.04297
2634.20946	0.04264
2632.14987	0.04280
2630.09029	0.04302
2628.03070	0.04286
2625.97112	0.04242
2623.91153	0.04223
2621.85195	0.04251
2619.79236	0.04257
2617.73278	0.04193
2615.67319	0.04125
2613.61361	0.04113
2611.55402	0.04106
2609.49444	0.04062
2607.43485	0.04022
2605.37527	0.04007
2603.31568	0.04011
2601.25610	0.03997
2599.19651	0.03936
2597.13693	0.03873
2595.07734	0.03839
2593.01776	0.03811
2590.95817	0.03783
2588.89859	0.03774
2586.83900	0.03788
2584.77942	0.03777
2582.71983	0.03727
2580.66024	0.03695
2578.60066	0.03673
2576.54107	0.03630
2574.48149	0.03594
2572.42190	0.03601
2570.36232	0.03631
2568.30273	0.03631
2566.24315	0.03611
2564.18356	0.03608
2562.12398	0.03596
2560.06439	0.03561
2558.00481	0.03542
2555.94522	0.03540
2553.88564	0.03515
2551.82605	0.03502
2549.76647	0.03522
2547.70688	0.03516
2545.64730	0.03473
2543.58771	0.03459
2541.52813	0.03479
2539.46854	0.03474
2537.40896	0.03450
2535.34937	0.03450
2533.28979	0.03455
2531.23020	0.03415
2529.17062	0.03344
2527.11103	0.03326
2525.05144	0.03365
2522.99186	0.03385
2520.93227	0.03380
2518.87269	0.03349
2516.81310	0.03306
2514.75352	0.03312
2512.69393	0.03358
2510.63435	0.03386
2508.57476	0.03365
2506.51518	0.03325
2504.45559	0.03304
2502.39601	0.03287
2500.33642	0.03279
2498.27684	0.03290
2496.21725	0.03270
2494.15767	0.03214
2492.09808	0.03187
2490.03850	0.03176
2487.97891	0.03140
2485.91933	0.03119
2483.85974	0.03129
2481.80016	0.03119
2479.74057	0.03101
2477.68099	0.03130
2475.62140	0.03162
2473.56181	0.03148
2471.50223	0.03131
2469.44264	0.03126
2467.38306	0.03093
2465.32347	0.03036
2463.26389	0.03003
2461.20430	0.03021
2459.14472	0.03053
2457.08513	0.03056
2455.02555	0.03040
2452.96596	0.03042
2450.90638	0.03054
2448.84679	0.03043
2446.78721	0.03032
2444.72762	0.03048
2442.66804	0.03051
2440.60845	0.03024
2438.54887	0.03006
2436.48928	0.02986
2434.42970	0.02954
2432.37011	0.02946
2430.31053	0.02963
2428.25094	0.02944
2426.19136	0.02892
2424.13177	0.02878
2422.07219	0.02893
2420.01260	0.02911
2417.95301	0.02924
2415.89343	0.02914
2413.83384	0.02874
2411.77426	0.02826
2409.71467	0.02820
2407.65509	0.02817
2405.59550	0.02800
2403.53592	0.02813
2401.47633	0.02835
2399.41675	0.02825
2397.35716	0.02794
2395.29758	0.02780
2393.23799	0.02781
2391.17841	0.02782
2389.11882	0.02790
2387.05924	0.02805
2384.99965	0.02832
2382.94007	0.02888
2380.88048	0.02942
2378.82090	0.02974
2376.76131	0.03074
2374.70173	0.02932
2372.64214	0.02902
2370.58256	0.03145
2368.52297	0.03162
2366.46338	0.03189
2364.40380	0.02980
2362.34421	0.02794
2360.28463	0.03104
2358.22504	0.03047
2356.16546	0.03070
2354.10587	0.03072
2352.04629	0.02965
2349.98670	0.03271
2347.92712	0.02959
2345.86753	0.02881
2343.80795	0.03313
2341.74836	0.02813
2339.68878	0.02356
2337.62919	0.02318
2335.56961	0.02869
2333.51002	0.03950
2331.45044	0.04089
2329.39085	0.03802
2327.33127	0.02883
2325.27168	0.02225
2323.21210	0.01864
2321.15251	0.01833
2319.09293	0.02051
2317.03334	0.02171
2314.97376	0.02370
2312.91417	0.02375
2310.85458	0.02407
2308.79500	0.02475
2306.73541	0.02442
2304.67583	0.02484
2302.61624	0.02557
2300.55666	0.02626
2298.49707	0.02679
2296.43749	0.02787
2294.37790	0.02840
2292.31832	0.02860
2290.25873	0.02825
2288.19915	0.02780
2286.13956	0.02756
2284.07998	0.02723
2282.02039	0.02642
2279.96081	0.02600
2277.90122	0.02603
2275.84164	0.02575
2273.78205	0.02539
2271.72247	0.02522
2269.66288	0.02535
2267.60330	0.02550
2265.54371	0.02554
2263.48413	0.02541
2261.42454	0.02530
2259.36495	0.02533
2257.30537	0.02541
2255.24578	0.02511
2253.18620	0.02451
2251.12661	0.02400
2249.06703	0.02373
2247.00744	0.02379
2244.94786	0.02449
2242.88827	0.02479
2240.82869	0.02414
2238.76910	0.02339
2236.70952	0.02307
2234.64993	0.02308
2232.59035	0.02334
2230.53076	0.02347
2228.47118	0.02311
2226.41159	0.02252
2224.35201	0.02211
2222.29242	0.02201
2220.23284	0.02175
2218.17325	0.02106
2216.11367	0.02033
2214.05408	0.02004
2211.99450	0.02051
2209.93491	0.02110
2207.87533	0.02066
2205.81574	0.02014
2203.75615	0.02073
2201.69657	0.02170
2199.63698	0.02208
2197.57740	0.02177
2195.51781	0.02142
2193.45823	0.02128
2191.39864	0.02120
2189.33906	0.02145
2187.27947	0.02222
2185.21989	0.02292
2183.16030	0.02239
2181.10072	0.02128
2179.04113	0.02114
2176.98155	0.02083
2174.92196	0.01968
2172.86238	0.01947
2170.80279	0.02087
2168.74321	0.02254
2166.68362	0.02261
2164.62404	0.02144
2162.56445	0.02106
2160.50487	0.02089
2158.44528	0.01927
2156.38570	0.01777
2154.32611	0.01776
2152.26652	0.01880
2150.20694	0.02010
2148.14735	0.02040
2146.08777	0.01966
2144.02818	0.01899
2141.96860	0.01846
2139.90901	0.01813
2137.84943	0.01821
2135.78984	0.01810
2133.73026	0.01826
2131.67067	0.01902
2129.61109	0.01956
2127.55150	0.01991
2125.49192	0.02030
2123.43233	0.02067
2121.37275	0.02140
2119.31316	0.02197
2117.25358	0.02185
2115.19399	0.02182
2113.13441	0.02219
2111.07482	0.02231
2109.01524	0.02220
2106.95565	0.02225
2104.89607	0.02212
2102.83648	0.02182
2100.77690	0.02170
2098.71731	0.02166
2096.65772	0.02171
2094.59814	0.02148
2092.53855	0.02083
2090.47897	0.02046
2088.41938	0.02076
2086.35980	0.02123
2084.30021	0.02153
2082.24063	0.02138
2080.18104	0.02068
2078.12146	0.01993
2076.06187	0.01970
2074.00229	0.01999
2071.94270	0.02058
2069.88312	0.02108
2067.82353	0.02105
2065.76395	0.02060
2063.70436	0.02002
2061.64478	0.01945
2059.58519	0.01926
2057.52561	0.01982
2055.46602	0.02070
2053.40644	0.02116
2051.34685	0.02063
2049.28727	0.01925
2047.22768	0.01801
2045.16810	0.01771
2043.10851	0.01813
2041.04892	0.01794
2038.98934	0.01702
2036.92975	0.01663
2034.87017	0.01644
2032.81058	0.01592
2030.75100	0.01570
2028.69141	0.01555
2026.63183	0.01525
2024.57224	0.01510
2022.51266	0.01545
2020.45307	0.01669
2018.39349	0.01789
2016.33390	0.01732
2014.27432	0.01574
2012.21473	0.01510
2010.15515	0.01532
2008.09556	0.01557
2006.03598	0.01555
2003.97639	0.01556
2001.91681	0.01606
1999.85722	0.01663
1997.79764	0.01678
1995.73805	0.01699
1993.67847	0.01735
1991.61888	0.01739
1989.55929	0.01697
1987.49971	0.01665
1985.44012	0.01714
1983.38054	0.01787
1981.32095	0.01791
1979.26137	0.01742
1977.20178	0.01634
1975.14220	0.01455
1973.08261	0.01353
1971.02303	0.01429
1968.96344	0.01540
1966.90386	0.01568
1964.84427	0.01531
1962.78469	0.01473
1960.72510	0.01449
1958.66552	0.01420
1956.60593	0.01366
1954.54635	0.01426
1952.48676	0.01585
1950.42718	0.01657
1948.36759	0.01619
1946.30801	0.01571
1944.24842	0.01534
1942.18884	0.01490
1940.12925	0.01509
1938.06967	0.01615
1936.01008	0.01692
1933.95049	0.01667
1931.89091	0.01615
1929.83132	0.01614
1927.77174	0.01645
1925.71215	0.01684
1923.65257	0.01712
1921.59298	0.01698
1919.53340	0.01660
1917.47381	0.01650
1915.41423	0.01666
1913.35464	0.01685
1911.29506	0.01711
1909.23547	0.01723
1907.17589	0.01695
1905.11630	0.01663
1903.05672	0.01654
1900.99713	0.01655
1898.93755	0.01650
1896.87796	0.01647
1894.81838	0.01663
1892.75879	0.01686
1890.69921	0.01689
1888.63962	0.01675
1886.58004	0.01673
1884.52045	0.01706
1882.46086	0.01747
1880.40128	0.01757
1878.34169	0.01742
1876.28211	0.01715
1874.22252	0.01675
1872.16294	0.01642
1870.10335	0.01619
1868.04377	0.01595
1865.98418	0.01585
1863.92460	0.01592
1861.86501	0.01614
1859.80543	0.01639
1857.74584	0.01644
1855.68626	0.01635
1853.62667	0.01632
1851.56709	0.01626
1849.50750	0.01620
1847.44792	0.01633
1845.38833	0.01650
1843.32875	0.01648
1841.26916	0.01642
1839.20958	0.01644
1837.14999	0.01650
1835.09041	0.01658
1833.03082	0.01660
1830.97124	0.01652
1828.91165	0.01643
1826.85206	0.01640
1824.79248	0.01638
1822.73289	0.01639
1820.67331	0.01645
1818.61372	0.01651
1816.55414	0.01657
1814.49455	0.01662
1812.43497	0.01658
1810.37538	0.01666
1808.31580	0.01700
1806.25621	0.01726
1804.19663	0.01728
1802.13704	0.01715
1800.07746	0.01698
1798.01787	0.01696
1795.95829	0.01706
1793.89870	0.01707
1791.83912	0.01708
1789.77953	0.01721
1787.71995	0.01738
1785.66036	0.01751
1783.60078	0.01756
1781.54119	0.01761
1779.48161	0.01776
1777.42202	0.01775
1775.36243	0.01733
1773.30285	0.01686
1771.24326	0.01694
1769.18368	0.01760
1767.12409	0.01823
1765.06451	0.01845
1763.00492	0.01843
1760.94534	0.01862
1758.88575	0.01920
1756.82617	0.02006
1754.76658	0.02090
1752.70700	0.02152
1750.64741	0.02210
1748.58783	0.02278
1746.52824	0.02340
1744.46866	0.02386
1742.40907	0.02426
1740.34949	0.02476
1738.28990	0.02526
1736.23032	0.02553
1734.17073	0.02578
1732.11115	0.02631
1730.05156	0.02691
1727.99198	0.02751
1725.93239	0.02812
1723.87281	0.02875
1721.81322	0.02927
1719.75363	0.02990
1717.69405	0.03147
1715.63446	0.03417
1713.57488	0.03693
1711.51529	0.03940
1709.45571	0.04217
1707.39612	0.04621
1705.33654	0.05211
1703.27695	0.05914
1701.21737	0.06795
1699.15778	0.07877
1697.09820	0.08826
1695.03861	0.09566
1692.97903	0.10145
1690.91944	0.10658
1688.85986	0.11200
1686.80027	0.11774
1684.74069	0.12567
1682.68110	0.13574
1680.62152	0.14385
1678.56193	0.15005
1676.50235	0.15671
1674.44276	0.16469
1672.38318	0.17275
1670.32359	0.18152
1668.26401	0.19150
1666.20442	0.20021
1664.14483	0.20841
1662.08525	0.21821
1660.02566	0.22780
1657.96608	0.23488
1655.90649	0.24065
1653.84691	0.24884
1651.78732	0.25842
1649.72774	0.26328
1647.66815	0.26596
1645.60857	0.26951
1643.54898	0.27215
1641.48940	0.27318
1639.42981	0.27350
1637.37023	0.27417
1635.31064	0.27614
1633.25106	0.27852
1631.19147	0.28031
1629.13189	0.28236
1627.07230	0.28521
1625.01272	0.28839
1622.95313	0.29149
1620.89355	0.29322
1618.83396	0.29214
1616.77438	0.28780
1614.71479	0.28082
1612.65520	0.27172
1610.59562	0.25993
1608.53603	0.24585
1606.47645	0.23129
1604.41686	0.21741
1602.35728	0.20426
1600.29769	0.19210
1598.23811	0.18120
1596.17852	0.17140
1594.11894	0.16273
1592.05935	0.15537
1589.99977	0.14921
1587.94018	0.14415
1585.88060	0.14033
1583.82101	0.13771
1581.76143	0.13594
1579.70184	0.13477
1577.64226	0.13450
1575.58267	0.13557
1573.52309	0.13729
1571.46350	0.13938
1569.40392	0.14288
1567.34433	0.14739
1565.28475	0.15171
1563.22516	0.15542
1561.16558	0.15957
1559.10599	0.16772
1557.04640	0.17881
1554.98682	0.18745
1552.92723	0.19476
1550.86765	0.20219
1548.80806	0.20937
1546.74848	0.21526
1544.68889	0.22015
1542.62931	0.22541
1540.56972	0.23215
1538.51014	0.23867
1536.45055	0.24202
1534.39097	0.24403
1532.33138	0.24667
1530.27180	0.24893
1528.21221	0.25040
1526.15263	0.25170
1524.09304	0.25293
1522.03346	0.25452
1519.97387	0.25663
1517.91429	0.25822
1515.85470	0.25856
1513.79512	0.25710
1511.73553	0.25375
1509.67595	0.24859
1507.61636	0.24082
1505.55677	0.23168
1503.49719	0.22436
1501.43760	0.21761
1499.37802	0.20928
1497.31843	0.19913
1495.25885	0.18890
1493.19926	0.17987
1491.13968	0.17040
1489.08009	0.15970
1487.02051	0.15036
1484.96092	0.14354
1482.90134	0.13816
1480.84175	0.13365
1478.78217	0.13047
1476.72258	0.12906
1474.66300	0.12982
1472.60341	0.13272
1470.54383	0.13596
1468.48424	0.13790
1466.42466	0.13897
1464.36507	0.14002
1462.30549	0.14082
1460.24590	0.14125
1458.18632	0.14266
1456.12673	0.14566
1454.06715	0.14767
1452.00756	0.14765
1449.94797	0.14657
1447.88839	0.14522
1445.82880	0.14366
1443.76922	0.14164
1441.70963	0.13927
1439.65005	0.13680
1437.59046	0.13400
1435.53088	0.13078
1433.47129	0.12770
1431.41171	0.12494
1429.35212	0.12257
1427.29254	0.12095
1425.23295	0.12016
1423.17337	0.12014
1421.11378	0.12079
1419.05420	0.12215
1416.99461	0.12382
1414.93503	0.12515
1412.87544	0.12613
1410.81586	0.12680
1408.75627	0.12700
1406.69669	0.12677
1404.63710	0.12632
1402.57752	0.12564
1400.51793	0.12474
1398.45834	0.12392
1396.39876	0.12347
1394.33917	0.12347
1392.27959	0.12368
1390.22000	0.12382
1388.16042	0.12373
1386.10083	0.12328
1384.04125	0.12238
1381.98166	0.12113
1379.92208	0.11968
1377.86249	0.11810
1375.80291	0.11652
1373.74332	0.11517
1371.68374	0.11405
1369.62415	0.11267
1367.56457	0.11071
1365.50498	0.10822
1363.44540	0.10543
1361.38581	0.10282
1359.32623	0.10095
1357.26664	0.09984
1355.20706	0.09921
1353.14747	0.09887
1351.08789	0.09881
1349.02830	0.09906
1346.96872	0.09957
1344.90913	0.10023
1342.84954	0.10088
1340.78996	0.10143
1338.73037	0.10186
1336.67079	0.10203
1334.61120	0.10191
1332.55162	0.10158
1330.49203	0.10117
1328.43245	0.10079
1326.37286	0.10053
1324.31328	0.10042
1322.25369	0.10043
1320.19411	0.10056
1318.13452	0.10088
1316.07494	0.10130
1314.01535	0.10167
1311.95577	0.10194
1309.89618	0.10208
1307.83660	0.10214
1305.77701	0.10214
1303.71743	0.10203
1301.65784	0.10192
1299.59826	0.10187
1297.53867	0.10171
1295.47909	0.10146
1293.41950	0.10135
1291.35991	0.10146
1289.30033	0.10165
1287.24074	0.10190
1285.18116	0.10217
1283.12157	0.10237
1281.06199	0.10252
1279.00240	0.10268
1276.94282	0.10281
1274.88323	0.10292
1272.82365	0.10319
1270.76406	0.10374
1268.70448	0.10457
1266.64489	0.10555
1264.58531	0.10666
1262.52572	0.10790
1260.46614	0.10915
1258.40655	0.11025
1256.34697	0.11120
1254.28738	0.11214
1252.22780	0.11319
1250.16821	0.11437
1248.10863	0.11558
1246.04904	0.11671
1243.98946	0.11761
1241.92987	0.11815
1239.87029	0.11845
1237.81070	0.11857
1235.75111	0.11835
1233.69153	0.11775
1231.63194	0.11683
1229.57236	0.11562
1227.51277	0.11412
1225.45319	0.11241
1223.39360	0.11058
1221.33402	0.10866
1219.27443	0.10655
1217.21485	0.10420
1215.15526	0.10173
1213.09568	0.09935
1211.03609	0.09715
1208.97651	0.09499
1206.91692	0.09275
1204.85734	0.09050
1202.79775	0.08832
1200.73817	0.08621
1198.67858	0.08421
1196.61900	0.08242
1194.55941	0.08083
1192.49983	0.07945
1190.44024	0.07826
1188.38066	0.07720
1186.32107	0.07627
1184.26149	0.07551
1182.20190	0.07509
1180.14231	0.07515
1178.08273	0.07569
1176.02314	0.07665
1173.96356	0.07784
1171.90397	0.07893
1169.84439	0.07973
1167.78480	0.08030
1165.72522	0.08078
1163.66563	0.08112
1161.60605	0.08115
1159.54646	0.08080
1157.48688	0.08018
1155.42729	0.07937
1153.36771	0.07830
1151.30812	0.07699
1149.24854	0.07564
1147.18895	0.07429
1145.12937	0.07300
1143.06978	0.07196
1141.01020	0.07120
1138.95061	0.07067
1136.89103	0.07045
1134.83144	0.07051
1132.77186	0.07075
1130.71227	0.07117
1128.65268	0.07168
1126.59310	0.07209
1124.53351	0.07223
1122.47393	0.07224
1120.41434	0.07230
1118.35476	0.07237
1116.29517	0.07243
1114.23559	0.07253
1112.17600	0.07262
1110.11642	0.07272
1108.05683	0.07304
1105.99725	0.07356
1103.93766	0.07398
1101.87808	0.07422
1099.81849	0.07449
1097.75891	0.07489
1095.69932	0.07539
1093.63974	0.07609
1091.58015	0.07711
1089.52057	0.07845
1087.46098	0.08014
1085.40140	0.08203
1083.34181	0.08391
1081.28223	0.08581
1079.22264	0.08761
1077.16306	0.08910
1075.10347	0.09024
1073.04388	0.09104
1070.98430	0.09144
1068.92471	0.09152
1066.86513	0.09132
1064.80554	0.09088
1062.74596	0.09038
1060.68637	0.08969
1058.62679	0.08874
1056.56720	0.08778
1054.50762	0.08699
1052.44803	0.08627
1050.38845	0.08536
1048.32886	0.08414
1046.26928	0.08276
1044.20969	0.08138
1042.15011	0.07992
1040.09052	0.07835
1038.03094	0.07694
1035.97135	0.07577
1033.91177	0.07474
1031.85218	0.07378
1029.79260	0.07266
1027.73301	0.07127
1025.67343	0.06970
1023.61384	0.06815
1021.55425	0.06674
1019.49467	0.06547
1017.43508	0.06424
1015.37550	0.06300
1013.31591	0.06174
1011.25633	0.06045
1009.19674	0.05911
1007.13716	0.05775
1005.07757	0.05642
1003.01799	0.05515
1000.95840	0.05396
998.89882	0.05291
996.83923	0.05198
994.77965	0.05119
992.72006	0.05049
990.66048	0.04977
988.60089	0.04908
986.54131	0.04860
984.48172	0.04825
982.42214	0.04779
980.36255	0.04731
978.30297	0.04693
976.24338	0.04651
974.18380	0.04610
972.12421	0.04580
970.06463	0.04555
968.00504	0.04533
965.94545	0.04514
963.88587	0.04491
961.82628	0.04465
959.76670	0.04434
957.70711	0.04394
955.64753	0.04355
953.58794	0.04331
951.52836	0.04326
949.46877	0.04323
947.40919	0.04316
945.34960	0.04315
943.29002	0.04318
941.23043	0.04328
939.17085	0.04351
937.11126	0.04372
935.05168	0.04380
932.99209	0.04374
930.93251	0.04358
928.87292	0.04343
926.81334	0.04327
924.75375	0.04295
922.69417	0.04251
920.63458	0.04207
918.57500	0.04171
916.51541	0.04139
914.45582	0.04102
912.39624	0.04060
910.33665	0.04030
908.27707	0.04020
906.21748	0.04033
904.15790	0.04052
902.09831	0.04057
900.03873	0.04054
897.97914	0.04045
895.91956	0.04019
893.85997	0.03979
891.80039	0.03934
889.74080	0.03893
887.68122	0.03858
885.62163	0.03834
883.56205	0.03831
881.50246	0.03836
879.44288	0.03837
877.38329	0.03836
875.32371	0.03837
873.26412	0.03841
871.20454	0.03832
869.14495	0.03809
867.08537	0.03795
865.02578	0.03807
862.96620	0.03831
860.90661	0.03839
858.84702	0.03846
856.78744	0.03870
854.72785	0.03894
852.66827	0.03917
850.60868	0.03942
848.54910	0.03952
846.48951	0.03950
844.42993	0.03945
842.37034	0.03938
840.31076	0.03948
838.25117	0.03976
836.19159	0.04007
834.13200	0.04050
832.07242	0.04103
830.01283	0.04133
827.95325	0.04153
825.89366	0.04183
823.83408	0.04209
821.77449	0.04232
819.71491	0.04264
817.65532	0.04298
815.59574	0.04334
813.53615	0.04383
811.47657	0.04435
809.41698	0.04478
807.35740	0.04528
805.29781	0.04593
803.23822	0.04647
801.17864	0.04680
799.11905	0.04719
797.05947	0.04761
794.99988	0.04796
792.94030	0.04831
790.88071	0.04868
788.82113	0.04915
786.76154	0.04973
784.70196	0.05030
782.64237	0.05084
780.58279	0.05144
778.52320	0.05205
776.46362	0.05251
774.40403	0.05291
772.34445	0.05341
770.28486	0.05404
768.22528	0.05466
766.16569	0.05517
764.10611	0.05549
762.04652	0.05568
759.98694	0.05594
757.92735	0.05642
755.86777	0.05708
753.80818	0.05785
751.74859	0.05860
749.68901	0.05917
747.62942	0.05964
745.56984	0.06002
743.51025	0.06031
741.45067	0.06060
739.39108	0.06089
737.33150	0.06130
735.27191	0.06188
733.21233	0.06258
731.15274	0.06351
729.09316	0.06470
727.03357	0.06590
724.97399	0.06695
722.91440	0.06796
720.85482	0.06881
718.79523	0.07010
716.73565	0.07067
714.67606	0.07133
712.61648	0.07212
710.55689	0.07315
708.49731	0.07458
706.43772	0.07630
704.37814	0.07809
702.31855	0.07967
700.25897	0.08086
698.19938	0.08153
696.13979	0.08165
694.08021	0.08150
692.02062	0.08133
689.96104	0.08128
687.90145	0.08126
685.84187	0.08131
683.78228	0.08156
681.72270	0.08191
679.66311	0.08214
677.60353	0.08229
675.54394	0.08249
673.48436	0.08246
671.42477	0.08540
669.36519	0.09124
667.30560	0.07940
665.24602	0.08372
663.18643	0.08411
661.12685	0.08384
659.06726	0.08408
657.00768	0.08425
654.94809	0.08441
652.88851	0.08461
650.82892	0.08472
648.76934	0.08457
646.70975	0.08487
644.65016	0.08516
642.59058	0.08532
640.53099	0.08537
638.47141	0.08551
636.41182	0.08586
634.35224	0.08613
632.29265	0.08621
630.23307	0.08623
628.17348	0.08618
626.11390	0.08616
624.05431	0.08624
621.99473	0.08625
619.93514	0.08611
617.87556	0.08607
615.81597	0.08621
613.75639	0.08632
611.69680	0.08617
609.63722	0.08575
607.57763	0.08545
605.51805	0.08551
603.45846	0.08562
601.39888	0.08558
599.33929	0.08547
597.27971	0.08531
595.22012	0.08510
593.16054	0.08504
591.10095	0.08505
589.04136	0.08502
586.98178	0.08508
584.92219	0.08513
582.86261	0.08508
580.80302	0.08507
578.74344	0.08522
576.68385	0.08544
574.62427	0.08556
572.56468	0.08543
570.50510	0.08530
568.44551	0.08548
566.38593	0.08594
564.32634	0.08634
562.26676	0.08650
560.20717	0.08639
558.14759	0.08617
556.08800	0.08590
554.02842	0.08551
551.96883	0.08527
549.90925	0.08537
547.84966	0.08551
545.79008	0.08551
543.73049	0.08537
541.67091	0.08512
539.61132	0.08493
537.55173	0.08486
535.49215	0.08479
533.43256	0.08475
531.37298	0.08485
529.31339	0.08503
527.25381	0.08519
525.19422	0.08533
523.13464	0.08515
521.07505	0.08451
519.01547	0.08384
516.95588	0.08372
514.89630	0.08385
512.83671	0.08359
510.77713	0.08302
508.71754	0.08256
506.65796	0.08211
504.59837	0.08154
502.53879	0.08119
500.47920	0.08094
498.41962	0.08044
496.36003	0.07993
494.30045	0.07935
492.24086	0.07862
490.18128	0.07826
488.12169	0.07828
486.06211	0.07814
484.00252	0.07779
481.94293	0.07756
479.88335	0.07744
477.82376	0.07715
475.76418	0.07668
473.70459	0.07627
471.64501	0.07589
469.58542	0.07549
467.52584	0.07522
465.46625	0.07518
463.40667	0.07516
461.34708	0.07494
459.28750	0.07456
457.22791	0.07431
455.16833	0.07426
453.10874	0.07415
451.04916	0.07387
448.98957	0.07339
446.92999	0.07277
444.87040	0.07205
442.81082	0.07121
440.75123	0.07048
438.69165	0.06996
436.63206	0.06964
434.57248	0.06936
432.51289	0.06886
430.45330	0.06821
428.39372	0.06769
426.33413	0.06737
424.27455	0.06711
422.21496	0.06677
420.15538	0.06644
418.09579	0.06624
416.03621	0.06585
413.97662	0.06530
411.91704	0.06480
409.85745	0.06419
407.79787	0.06338
405.73828	0.06235
403.67870	0.06117
401.61911	0.06051
399.55953	0.06086
