3997.65486	0.04559
3995.59527	0.04582
3993.53569	0.04553
3991.47610	0.04493
3989.41652	0.04481
3987.35693	0.04494
3985.29735	0.04481
3983.23776	0.04484
3981.17817	0.04526
3979.11859	0.04579
3977.05900	0.04603
3974.99942	0.04589
3972.93983	0.04586
3970.88025	0.04602
3968.82066	0.04596
3966.76108	0.04566
3964.70149	0.04522
3962.64191	0.04485
3960.58232	0.04507
3958.52274	0.04551
3956.46315	0.04521
3954.40357	0.04450
3952.34398	0.04448
3950.28440	0.04528
3948.22481	0.04597
3946.16523	0.04599
3944.10564	0.04558
3942.04606	0.04495
3939.98647	0.04440
3937.92689	0.04433
3935.86730	0.04441
3933.80772	0.04427
3931.74813	0.04409
3929.68855	0.04389
3927.62896	0.04372
3925.56937	0.04390
3923.50979	0.04424
3921.45020	0.04424
3919.39062	0.04395
3917.33103	0.04376
3915.27145	0.04404
3913.21186	0.04445
3911.15228	0.04452
3909.09269	0.04453
3907.03311	0.04460
3904.97352	0.04434
3902.91394	0.04368
3900.85435	0.04304
3898.79477	0.04278
3896.73518	0.04286
3894.67560	0.04282
3892.61601	0.04251
3890.55643	0.04205
3888.49684	0.04142
3886.43726	0.04125
3884.37767	0.04208
3882.31809	0.04312
3880.25850	0.04345
3878.19892	0.04291
3876.13933	0.04208
3874.07974	0.04169
3872.02016	0.04202
3869.96057	0.04283
3867.90099	0.04317
3865.84140	0.04248
3863.78182	0.04181
3861.72223	0.04225
3859.66265	0.04307
3857.60306	0.04299
3855.54348	0.04213
3853.48389	0.04198
3851.42431	0.04249
3849.36472	0.04211
3847.30514	0.04144
3845.24555	0.04160
3843.18597	0.04210
3841.12638	0.04202
3839.06680	0.04177
3837.00721	0.04163
3834.94763	0.04077
3832.88804	0.03965
3830.82846	0.03954
3828.76887	0.04015
3826.70929	0.04053
3824.64970	0.04058
3822.59012	0.04096
3820.53053	0.04195
3818.47094	0.04201
3816.41136	0.04061
3814.35177	0.03946
3812.29219	0.03943
3810.23260	0.03992
3808.17302	0.04050
3806.11343	0.04083
3804.05385	0.04052
3801.99426	0.03981
3799.93468	0.03946
3797.87509	0.03956
3795.81551	0.03958
3793.75592	0.03950
3791.69634	0.03962
3789.63675	0.04002
3787.57717	0.04046
3785.51758	0.04067
3783.45800	0.04046
3781.39841	0.03986
3779.33883	0.03935
3777.27924	0.03936
3775.21966	0.03956
3773.16007	0.03965
3771.10049	0.03964
3769.04090	0.03962
3766.98132	0.03970
3764.92173	0.03985
3762.86214	0.03983
3760.80256	0.03941
3758.74297	0.03888
3756.68339	0.03876
3754.62380	0.03891
3752.56422	0.03938
3750.50463	0.04034
3748.44505	0.04125
3746.38546	0.04135
3744.32588	0.04036
3742.26629	0.03925
3740.20671	0.03894
3738.14712	0.03881
3736.08754	0.03866
3734.02795	0.03884
3731.96837	0.03896
3729.90878	0.03891
3727.84920	0.03869
3725.78961	0.03802
3723.73003	0.03725
3721.67044	0.03689
3719.61086	0.03706
3717.55127	0.03762
3715.49169	0.03818
3713.43210	0.03830
3711.37251	0.03807
3709.31293	0.03770
3707.25334	0.03763
3705.19376	0.03798
3703.13417	0.03859
3701.07459	0.03890
3699.01500	0.03858
3696.95542	0.03804
3694.89583	0.03782
3692.83625	0.03807
3690.77666	0.03871
3688.71708	0.03926
3686.65749	0.03941
3684.59791	0.03942
3682.53832	0.03970
3680.47874	0.03993
3678.41915	0.03954
3676.35957	0.03914
3674.29998	0.03963
3672.24040	0.04038
3670.18081	0.04077
3668.12123	0.04111
3666.06164	0.04159
3664.00206	0.04208
3661.94247	0.04269
3659.88289	0.04356
3657.82330	0.04441
3655.76371	0.04502
3653.70413	0.04521
3651.64454	0.04528
3649.58496	0.04626
3647.52537	0.04814
3645.46579	0.04935
3643.40620	0.04957
3641.34662	0.04956
3639.28703	0.04972
3637.22745	0.04995
3635.16786	0.05048
3633.10828	0.05141
3631.04869	0.05240
3628.98911	0.05361
3626.92952	0.05502
3624.86994	0.05614
3622.81035	0.05685
3620.75077	0.05713
3618.69118	0.05732
3616.63160	0.05782
3614.57201	0.05831
3612.51243	0.05863
3610.45284	0.05931
3608.39326	0.06038
3606.33367	0.06104
3604.27408	0.06172
3602.21450	0.06338
3600.15491	0.06544
3598.09533	0.06669
3596.03574	0.06736
3593.97616	0.06825
3591.91657	0.06939
3589.85699	0.07051
3587.79740	0.07167
3585.73782	0.07263
3583.67823	0.07345
3581.61865	0.07422
3579.55906	0.07513
3577.49948	0.07629
3575.43989	0.07753
3573.38031	0.07872
3571.32072	0.07983
3569.26114	0.08103
3567.20155	0.08234
3565.14197	0.08333
3563.08238	0.08411
3561.02280	0.08505
3558.96321	0.08607
3556.90363	0.08703
3554.84404	0.08805
3552.78446	0.08935
3550.72487	0.09065
3548.66528	0.09144
3546.60570	0.09180
3544.54611	0.09235
3542.48653	0.09371
3540.42694	0.09551
3538.36736	0.09690
3536.30777	0.09785
3534.24819	0.09885
3532.18860	0.09997
3530.12902	0.10096
3528.06943	0.10183
3526.00985	0.10288
3523.95026	0.10421
3521.89068	0.10555
3519.83109	0.10661
3517.77151	0.10745
3515.71192	0.10826
3513.65234	0.10934
3511.59275	0.11061
3509.53317	0.11160
3507.47358	0.11241
3505.41400	0.11339
3503.35441	0.11446
3501.29483	0.11554
3499.23524	0.11680
3497.17565	0.11822
3495.11607	0.11949
3493.05648	0.12034
3490.99690	0.12096
3488.93731	0.12176
3486.87773	0.12276
3484.81814	0.12376
3482.75856	0.12494
3480.69897	0.12612
3478.63939	0.12704
3476.57980	0.12783
3474.52022	0.12863
3472.46063	0.12971
3470.40105	0.13097
3468.34146	0.13192
3466.28188	0.13264
3464.22229	0.13377
3462.16271	0.13534
3460.10312	0.13651
3458.04354	0.13715
3455.98395	0.13784
3453.92437	0.13849
3451.86478	0.13892
3449.80520	0.13970
3447.74561	0.14120
3445.68603	0.14284
3443.62644	0.14384
3441.56685	0.14447
3439.50727	0.14533
3437.44768	0.14635
3435.38810	0.14747
3433.32851	0.14860
3431.26893	0.14948
3429.20934	0.15046
3427.14976	0.15174
3425.09017	0.15276
3423.03059	0.15363
3420.97100	0.15501
3418.91142	0.15644
3416.85183	0.15753
3414.79225	0.15866
3412.73266	0.15962
3410.67308	0.16023
3408.61349	0.16081
3406.55391	0.16140
3404.49432	0.16220
3402.43474	0.16329
3400.37515	0.16432
3398.31557	0.16537
3396.25598	0.16672
3394.19640	0.16824
3392.13681	0.16944
3390.07723	0.17014
3388.01764	0.17103
3385.95805	0.17250
3383.89847	0.17386
3381.83888	0.17475
3379.77930	0.17567
3377.71971	0.17691
3375.66013	0.17824
3373.60054	0.17961
3371.54096	0.18113
3369.48137	0.18257
3367.42179	0.18389
3365.36220	0.18512
3363.30262	0.18618
3361.24303	0.18756
3359.18345	0.18936
3357.12386	0.19109
3355.06428	0.19262
3353.00469	0.19431
3350.94511	0.19626
3348.88552	0.19811
3346.82594	0.19992
3344.76635	0.20212
3342.70677	0.20458
3340.64718	0.20645
3338.58760	0.20745
3336.52801	0.20859
3334.46842	0.21087
3332.40884	0.21390
3330.34925	0.21649
3328.28967	0.21864
3326.23008	0.22100
3324.17050	0.22362
3322.11091	0.22627
3320.05133	0.22890
3317.99174	0.23171
3315.93216	0.23445
3313.87257	0.23658
3311.81299	0.23846
3309.75340	0.24097
3307.69382	0.24413
3305.63423	0.24736
3303.57465	0.25053
3301.51506	0.25349
3299.45548	0.25584
3297.39589	0.25814
3295.33631	0.26095
3293.27672	0.26357
3291.21714	0.26555
3289.15755	0.26748
3287.09797	0.26950
3285.03838	0.27095
3282.97880	0.27179
3280.91921	0.27230
3278.85962	0.27272
3276.80004	0.27322
3274.74045	0.27355
3272.68087	0.27324
3270.62128	0.27211
3268.56170	0.27055
3266.50211	0.26875
3264.44253	0.26611
3262.38294	0.26274
3260.32336	0.25947
3258.26377	0.25659
3256.20419	0.25366
3254.14460	0.25061
3252.08502	0.24807
3250.02543	0.24603
3247.96585	0.24350
3245.90626	0.24027
3243.84668	0.23702
3241.78709	0.23400
3239.72751	0.23117
3237.66792	0.22875
3235.60834	0.22650
3233.54875	0.22385
3231.48917	0.22098
3229.42958	0.21853
3227.36999	0.21659
3225.31041	0.21480
3223.25082	0.21301
3221.19124	0.21143
3219.13165	0.21017
3217.07207	0.20868
3215.01248	0.20670
3212.95290	0.20468
3210.89331	0.20287
3208.83373	0.20143
3206.77414	0.19995
3204.71456	0.19782
3202.65497	0.19563
3200.59539	0.19415
3198.53580	0.19281
3196.47622	0.19110
3194.41663	0.18923
3192.35705	0.18732
3190.29746	0.18536
3188.23788	0.18317
3186.17829	0.18085
3184.11871	0.17876
3182.05912	0.17701
3179.99954	0.17549
3177.93995	0.17366
3175.88037	0.17114
3173.82078	0.16856
3171.76119	0.16645
3169.70161	0.16466
3167.64202	0.16269
3165.58244	0.16032
3163.52285	0.15798
3161.46327	0.15593
3159.40368	0.15403
3157.34410	0.15211
3155.28451	0.14987
3153.22493	0.14743
3151.16534	0.14539
3149.10576	0.14385
3147.04617	0.14245
3144.98659	0.14119
3142.92700	0.14019
3140.86742	0.13904
3138.80783	0.13724
3136.74825	0.13515
3134.68866	0.13350
3132.62908	0.13233
3130.56949	0.13114
3128.50991	0.12980
3126.45032	0.12873
3124.39074	0.12814
3122.33115	0.12787
3120.27156	0.12758
3118.21198	0.12705
3116.15239	0.12644
3114.09281	0.12585
3112.03322	0.12544
3109.97364	0.12537
3107.91405	0.12522
3105.85447	0.12474
3103.79488	0.12442
3101.73530	0.12451
3099.67571	0.12498
3097.61613	0.12546
3095.55654	0.12548
3093.49696	0.12540
3091.43737	0.12554
3089.37779	0.12582
3087.31820	0.12642
3085.25862	0.12718
3083.19903	0.12767
3081.13945	0.12773
3079.07986	0.12738
3077.02028	0.12684
3074.96069	0.12645
3072.90111	0.12632
3070.84152	0.12641
3068.78194	0.12660
3066.72235	0.12636
3064.66276	0.12546
3062.60318	0.12442
3060.54359	0.12354
3058.48401	0.12251
3056.42442	0.12112
3054.36484	0.11970
3052.30525	0.11854
3050.24567	0.11732
3048.18608	0.11567
3046.12650	0.11429
3044.06691	0.11370
3042.00733	0.11293
3039.94774	0.11127
3037.88816	0.10944
3035.82857	0.10822
3033.76899	0.10725
3031.70940	0.10608
3029.64982	0.10490
3027.59023	0.10378
3025.53065	0.10247
3023.47106	0.10108
3021.41148	0.09991
3019.35189	0.09886
3017.29231	0.09786
3015.23272	0.09736
3013.17313	0.09715
3011.11355	0.09653
3009.05396	0.09554
3006.99438	0.09472
3004.93479	0.09446
3002.87521	0.09471
3000.81562	0.09507
2998.75604	0.09533
2996.69645	0.09554
2994.63687	0.09605
2992.57728	0.09712
2990.51770	0.09848
2988.45811	0.10009
2986.39853	0.10218
2984.33894	0.10463
2982.27936	0.10722
2980.21977	0.10981
2978.16019	0.11232
2976.10060	0.11498
2974.04102	0.11773
2971.98143	0.12038
2969.92185	0.12318
2967.86226	0.12626
2965.80268	0.12925
2963.74309	0.13158
2961.68351	0.13309
2959.62392	0.13398
2957.56433	0.13403
2955.50475	0.13313
2953.44516	0.13158
2951.38558	0.12957
2949.32599	0.12792
2947.26641	0.12755
2945.20682	0.12852
2943.14724	0.13089
2941.08765	0.13466
2939.02807	0.13924
2936.96848	0.14409
2934.90890	0.14936
2932.84931	0.15512
2930.78973	0.16079
2928.73014	0.16609
2926.67056	0.17106
2924.61097	0.17544
2922.55139	0.17902
2920.49180	0.18117
2918.43222	0.18038
2916.37263	0.17502
2914.31305	0.16506
2912.25346	0.15341
2910.19388	0.14345
2908.13429	0.13610
2906.07471	0.13077
2904.01512	0.12691
2901.95553	0.12389
2899.89595	0.12121
2897.83636	0.11889
2895.77678	0.11678
2893.71719	0.11466
2891.65761	0.11255
2889.59802	0.11060
2887.53844	0.10906
2885.47885	0.10802
2883.41927	0.10749
2881.35968	0.10763
2879.30010	0.10831
2877.24051	0.10910
2875.18093	0.10957
2873.12134	0.10943
2871.06176	0.10847
2869.00217	0.10673
2866.94259	0.10498
2864.88300	0.10431
2862.82342	0.10505
2860.76383	0.10710
2858.70425	0.11026
2856.64466	0.11452
2854.58508	0.11987
2852.52549	0.12528
2850.46590	0.12772
2848.40632	0.12386
2846.34673	0.11427
2844.28715	0.10349
2842.22756	0.09487
2840.16798	0.08894
2838.10839	0.08499
2836.04881	0.08198
2833.98922	0.07963
2831.92964	0.07787
2829.87005	0.07646
2827.81047	0.07543
2825.75088	0.07471
2823.69130	0.07400
2821.63171	0.07320
2819.57213	0.07248
2817.51254	0.07177
2815.45296	0.07108
2813.39337	0.07059
2811.33379	0.07006
2809.27420	0.06929
2807.21462	0.06851
2805.15503	0.06802
2803.09545	0.06787
2801.03586	0.06763
2798.97628	0.06700
2796.91669	0.06616
2794.85710	0.06535
2792.79752	0.06490
2790.73793	0.06479
2788.67835	0.06455
2786.61876	0.06397
2784.55918	0.06323
2782.49959	0.06260
2780.44001	0.06218
2778.38042	0.06189
2776.32084	0.06172
2774.26125	0.06140
2772.20167	0.06082
2770.14208	0.06046
2768.08250	0.06024
2766.02291	0.05972
2763.96333	0.05910
2761.90374	0.05877
2759.84416	0.05855
2757.78457	0.05820
2755.72499	0.05795
2753.66540	0.05780
2751.60582	0.05748
2749.54623	0.05701
2747.48665	0.05657
2745.42706	0.05626
2743.36747	0.05594
2741.30789	0.05546
2739.24830	0.05507
2737.18872	0.05498
2735.12913	0.05497
2733.06955	0.05469
2731.00996	0.05413
2728.95038	0.05361
2726.89079	0.05325
2724.83121	0.05289
2722.77162	0.05264
2720.71204	0.05254
2718.65245	0.05224
2716.59287	0.05168
2714.53328	0.05118
2712.47370	0.05098
2710.41411	0.05087
2708.35453	0.05060
2706.29494	0.05025
2704.23536	0.04994
2702.17577	0.04987
2700.11619	0.04999
2698.05660	0.04996
2695.99702	0.04969
2693.93743	0.04932
2691.87785	0.04909
2689.81826	0.04908
2687.75867	0.04887
2685.69909	0.04843
2683.63950	0.04826
2681.57992	0.04820
2679.52033	0.04795
2677.46075	0.04763
2675.40116	0.04729
2673.34158	0.04695
2671.28199	0.04674
2669.22241	0.04677
2667.16282	0.04689
2665.10324	0.04685
2663.04365	0.04661
2660.98407	0.04643
2658.92448	0.04649
2656.86490	0.04663
2654.80531	0.04665
2652.74573	0.04653
2650.68614	0.04630
2648.62656	0.04594
2646.56697	0.04565
2644.50739	0.04548
2642.44780	0.04528
2640.38822	0.04503
2638.32863	0.04483
2636.26904	0.04478
2634.20946	0.04472
2632.14987	0.04440
2630.09029	0.04398
2628.03070	0.04386
2625.97112	0.04401
2623.91153	0.04393
2621.85195	0.04367
2619.79236	0.04334
2617.73278	0.04295
2615.67319	0.04262
2613.61361	0.04240
2611.55402	0.04240
2609.49444	0.04235
2607.43485	0.04205
2605.37527	0.04182
2603.31568	0.04163
2601.25610	0.04115
2599.19651	0.04048
2597.13693	0.04000
2595.07734	0.03990
2593.01776	0.04003
2590.95817	0.04006
2588.89859	0.04011
2586.83900	0.04010
2584.77942	0.03964
2582.71983	0.03913
2580.66024	0.03912
2578.60066	0.03933
2576.54107	0.03926
2574.48149	0.03891
2572.42190	0.03855
2570.36232	0.03817
2568.30273	0.03784
2566.24315	0.03773
2564.18356	0.03774
2562.12398	0.03783
2560.06439	0.03794
2558.00481	0.03772
2555.94522	0.03721
2553.88564	0.03710
2551.82605	0.03745
2549.76647	0.03733
2547.70688	0.03656
2545.64730	0.03586
2543.58771	0.03548
2541.52813	0.03544
2539.46854	0.03559
2537.40896	0.03545
2535.34937	0.03519
2533.28979	0.03521
2531.23020	0.03526
2529.17062	0.03516
2527.11103	0.03522
2525.05144	0.03550
2522.99186	0.03576
2520.93227	0.03559
2518.87269	0.03500
2516.81310	0.03439
2514.75352	0.03402
2512.69393	0.03397
2510.63435	0.03400
2508.57476	0.03409
2506.51518	0.03410
2504.45559	0.03390
2502.39601	0.03378
2500.33642	0.03389
2498.27684	0.03400
2496.21725	0.03388
2494.15767	0.03373
2492.09808	0.03358
2490.03850	0.03333
2487.97891	0.03298
2485.91933	0.03285
2483.85974	0.03285
2481.80016	0.03298
2479.74057	0.03328
2477.68099	0.03321
2475.62140	0.03279
2473.56181	0.03233
2471.50223	0.03191
2469.44264	0.03185
2467.38306	0.03214
2465.32347	0.03228
2463.26389	0.03212
2461.20430	0.03210
2459.14472	0.03228
2457.08513	0.03242
2455.02555	0.03259
2452.96596	0.03257
2450.90638	0.03212
2448.84679	0.03171
2446.78721	0.03152
2444.72762	0.03135
2442.66804	0.03119
2440.60845	0.03104
2438.54887	0.03092
2436.48928	0.03082
2434.42970	0.03059
2432.37011	0.03032
2430.31053	0.03028
2428.25094	0.03041
2426.19136	0.03071
2424.13177	0.03094
2422.07219	0.03068
2420.01260	0.03038
2417.95301	0.03030
2415.89343	0.03003
2413.83384	0.02978
2411.77426	0.02996
2409.71467	0.03000
2407.65509	0.02954
2405.59550	0.02928
2403.53592	0.02942
2401.47633	0.02958
2399.41675	0.02966
2397.35716	0.02961
2395.29758	0.02959
2393.23799	0.02947
2391.17841	0.02938
2389.11882	0.02949
2387.05924	0.02967
2384.99965	0.02983
2382.94007	0.02992
2380.88048	0.02998
2378.82090	0.03004
2376.76131	0.03055
2374.70173	0.03021
2372.64214	0.03032
2370.58256	0.03124
2368.52297	0.03088
2366.46338	0.03156
2364.40380	0.03140
2362.34421	0.03084
2360.28463	0.03219
2358.22504	0.03177
2356.16546	0.03166
2354.10587	0.03136
2352.04629	0.03085
2349.98670	0.03388
2347.92712	0.03277
2345.86753	0.03044
2343.80795	0.03122
2341.74836	0.03026
2339.68878	0.03189
2337.62919	0.03239
2335.56961	0.03053
2333.51002	0.03109
2331.45044	0.03046
2329.39085	0.03207
2327.33127	0.03160
2325.27168	0.03250
2323.21210	0.03210
2321.15251	0.03133
2319.09293	0.03074
2317.03334	0.03028
2314.97376	0.03049
2312.91417	0.03046
2310.85458	0.02987
2308.79500	0.02936
2306.73541	0.02913
2304.67583	0.02931
2302.61624	0.02928
2300.55666	0.02889
2298.49707	0.02853
2296.43749	0.02884
2294.37790	0.02917
2292.31832	0.02932
2290.25873	0.02946
2288.19915	0.02963
2286.13956	0.02927
2284.07998	0.02860
2282.02039	0.02816
2279.96081	0.02792
2277.90122	0.02731
2275.84164	0.02660
2273.78205	0.02657
2271.72247	0.02694
2269.66288	0.02699
2267.60330	0.02665
2265.54371	0.02631
2263.48413	0.02595
2261.42454	0.02592
2259.36495	0.02627
2257.30537	0.02599
2255.24578	0.02502
2253.18620	0.02478
2251.12661	0.02502
2249.06703	0.02482
2247.00744	0.02440
2244.94786	0.02414
2242.88827	0.02417
2240.82869	0.02441
2238.76910	0.02435
2236.70952	0.02453
2234.64993	0.02491
2232.59035	0.02447
2230.53076	0.02379
2228.47118	0.02372
2226.41159	0.02393
2224.35201	0.02417
2222.29242	0.02413
2220.23284	0.02331
2218.17325	0.02242
2216.11367	0.02236
2214.05408	0.02305
2211.99450	0.02408
2209.93491	0.02440
2207.87533	0.02303
2205.81574	0.02104
2203.75615	0.02055
2201.69657	0.02133
2199.63698	0.02165
2197.57740	0.02146
2195.51781	0.02129
2193.45823	0.02121
2191.39864	0.02198
2189.33906	0.02363
2187.27947	0.02426
2185.21989	0.02268
2183.16030	0.02070
2181.10072	0.01984
2179.04113	0.02001
2176.98155	0.02027
2174.92196	0.01999
2172.86238	0.02010
2170.80279	0.02101
2168.74321	0.02151
2166.68362	0.02101
2164.62404	0.02081
2162.56445	0.02110
2160.50487	0.01967
2158.44528	0.01677
2156.38570	0.01505
2154.32611	0.01482
2152.26652	0.01527
2150.20694	0.01574
2148.14735	0.01632
2146.08777	0.01764
2144.02818	0.01891
2141.96860	0.01889
2139.90901	0.01807
2137.84943	0.01754
2135.78984	0.01749
2133.73026	0.01818
2131.67067	0.01963
2129.61109	0.02082
2127.55150	0.02127
2125.49192	0.02147
2123.43233	0.02192
2121.37275	0.02253
2119.31316	0.02280
2117.25358	0.02277
2115.19399	0.02293
2113.13441	0.02316
2111.07482	0.02316
2109.01524	0.02291
2106.95565	0.02258
2104.89607	0.02224
2102.83648	0.02225
2100.77690	0.02270
2098.71731	0.02240
2096.65772	0.02087
2094.59814	0.01944
2092.53855	0.01930
2090.47897	0.02027
2088.41938	0.02132
2086.35980	0.02189
2084.30021	0.02216
2082.24063	0.02249
2080.18104	0.02260
2078.12146	0.02220
2076.06187	0.02171
2074.00229	0.02119
2071.94270	0.02077
2069.88312	0.02050
2067.82353	0.02031
2065.76395	0.02070
2063.70436	0.02119
2061.64478	0.02101
2059.58519	0.02045
2057.52561	0.02000
2055.46602	0.01986
2053.40644	0.01989
2051.34685	0.02019
2049.28727	0.02049
2047.22768	0.02010
2045.16810	0.01939
2043.10851	0.01899
2041.04892	0.01859
2038.98934	0.01797
2036.92975	0.01786
2034.87017	0.01809
2032.81058	0.01757
2030.75100	0.01688
2028.69141	0.01699
2026.63183	0.01719
2024.57224	0.01745
2022.51266	0.01823
2020.45307	0.01826
2018.39349	0.01684
2016.33390	0.01520
2014.27432	0.01488
2012.21473	0.01586
2010.15515	0.01620
2008.09556	0.01520
2006.03598	0.01491
2003.97639	0.01627
2001.91681	0.01778
1999.85722	0.01838
1997.79764	0.01807
1995.73805	0.01760
1993.67847	0.01756
1991.61888	0.01744
1989.55929	0.01723
1987.49971	0.01749
1985.44012	0.01744
1983.38054	0.01704
1981.32095	0.01747
1979.26137	0.01766
1977.20178	0.01668
1975.14220	0.01564
1973.08261	0.01454
1971.02303	0.01393
1968.96344	0.01451
1966.90386	0.01453
1964.84427	0.01373
1962.78469	0.01384
1960.72510	0.01441
1958.66552	0.01458
1956.60593	0.01465
1954.54635	0.01490
1952.48676	0.01550
1950.42718	0.01602
1948.36759	0.01605
1946.30801	0.01556
1944.24842	0.01498
1942.18884	0.01499
1940.12925	0.01539
1938.06967	0.01551
1936.01008	0.01520
1933.95049	0.01497
1931.89091	0.01517
1929.83132	0.01550
1927.77174	0.01558
1925.71215	0.01552
1923.65257	0.01575
1921.59298	0.01644
1919.53340	0.01713
1917.47381	0.01738
1915.41423	0.01734
1913.35464	0.01727
1911.29506	0.01711
1909.23547	0.01700
1907.17589	0.01699
1905.11630	0.01683
1903.05672	0.01658
1900.99713	0.01648
1898.93755	0.01647
1896.87796	0.01651
1894.81838	0.01664
1892.75879	0.01676
1890.69921	0.01680
1888.63962	0.01678
1886.58004	0.01670
1884.52045	0.01667
1882.46086	0.01669
1880.40128	0.01661
1878.34169	0.01642
1876.28211	0.01627
1874.22252	0.01623
1872.16294	0.01632
1870.10335	0.01650
1868.04377	0.01667
1865.98418	0.01671
1863.92460	0.01651
1861.86501	0.01605
1859.80543	0.01562
1857.74584	0.01565
1855.68626	0.01608
1853.62667	0.01649
1851.56709	0.01658
1849.50750	0.01636
1847.44792	0.01617
1845.38833	0.01620
1843.32875	0.01623
1841.26916	0.01605
1839.20958	0.01584
1837.14999	0.01580
1835.09041	0.01590
1833.03082	0.01603
1830.97124	0.01622
1828.91165	0.01637
1826.85206	0.01622
1824.79248	0.01601
1822.73289	0.01607
1820.67331	0.01612
1818.61372	0.01597
1816.55414	0.01584
1814.49455	0.01590
1812.43497	0.01612
1810.37538	0.01637
1808.31580	0.01647
1806.25621	0.01646
1804.19663	0.01649
1802.13704	0.01658
1800.07746	0.01663
1798.01787	0.01657
1795.95829	0.01658
1793.89870	0.01665
1791.83912	0.01668
1789.77953	0.01674
1787.71995	0.01685
1785.66036	0.01690
1783.60078	0.01690
1781.54119	0.01695
1779.48161	0.01701
1777.42202	0.01695
1775.36243	0.01681
1773.30285	0.01687
1771.24326	0.01709
1769.18368	0.01720
1767.12409	0.01730
1765.06451	0.01747
1763.00492	0.01759
1760.94534	0.01767
1758.88575	0.01779
1756.82617	0.01799
1754.76658	0.01835
1752.70700	0.01887
1750.64741	0.01949
1748.58783	0.02004
1746.52824	0.02051
1744.46866	0.02090
1742.40907	0.02125
1740.34949	0.02152
1738.28990	0.02170
1736.23032	0.02194
1734.17073	0.02233
1732.11115	0.02275
1730.05156	0.02310
1727.99198	0.02345
1725.93239	0.02378
1723.87281	0.02419
1721.81322	0.02486
1719.75363	0.02591
1717.69405	0.02738
1715.63446	0.02922
1713.57488	0.03127
1711.51529	0.03353
1709.45571	0.03623
1707.39612	0.03993
1705.33654	0.04506
1703.27695	0.05116
1701.21737	0.05907
1699.15778	0.06911
1697.09820	0.07789
1695.03861	0.08423
1692.97903	0.08890
1690.91944	0.09336
1688.85986	0.09839
1686.80027	0.10381
1684.74069	0.11123
1682.68110	0.12032
1680.62152	0.12737
1678.56193	0.13281
1676.50235	0.13883
1674.44276	0.14603
1672.38318	0.15324
1670.32359	0.16114
1668.26401	0.16994
1666.20442	0.17735
1664.14483	0.18448
1662.08525	0.19341
1660.02566	0.20224
1657.96608	0.20881
1655.90649	0.21435
1653.84691	0.22212
1651.78732	0.23083
1649.72774	0.23522
1647.66815	0.23770
1645.60857	0.24043
1643.54898	0.24195
1641.48940	0.24235
1639.42981	0.24266
1637.37023	0.24362
1635.31064	0.24546
1633.25106	0.24695
1631.19147	0.24775
1629.13189	0.24901
1627.07230	0.25100
1625.01272	0.25309
1622.95313	0.25485
1620.89355	0.25536
1618.83396	0.25367
1616.77438	0.24925
1614.71479	0.24244
1612.65520	0.23400
1610.59562	0.22368
1608.53603	0.21180
1606.47645	0.19967
1604.41686	0.18807
1602.35728	0.17708
1600.29769	0.16709
1598.23811	0.15838
1596.17852	0.15065
1594.11894	0.14363
1592.05935	0.13747
1589.99977	0.13230
1587.94018	0.12820
1585.88060	0.12512
1583.82101	0.12288
1581.76143	0.12140
1579.70184	0.12064
1577.64226	0.12078
1575.58267	0.12201
1573.52309	0.12359
1571.46350	0.12537
1569.40392	0.12819
1567.34433	0.13173
1565.28475	0.13525
1563.22516	0.13854
1561.16558	0.14267
1559.10599	0.15061
1557.04640	0.16046
1554.98682	0.16739
1552.92723	0.17309
1550.86765	0.17938
1548.80806	0.18594
1546.74848	0.19160
1544.68889	0.19638
1542.62931	0.20142
1540.56972	0.20759
1538.51014	0.21302
1536.45055	0.21547
1534.39097	0.21692
1532.33138	0.21880
1530.27180	0.22023
1528.21221	0.22121
1526.15263	0.22232
1524.09304	0.22350
1522.03346	0.22488
1519.97387	0.22635
1517.91429	0.22730
1515.85470	0.22742
1513.79512	0.22617
1511.73553	0.22346
1509.67595	0.21938
1507.61636	0.21284
1505.55677	0.20440
1503.49719	0.19742
1501.43760	0.19134
1499.37802	0.18417
1497.31843	0.17537
1495.25885	0.16635
1493.19926	0.15852
1491.13968	0.15063
1489.08009	0.14162
1487.02051	0.13336
1484.96092	0.12719
1482.90134	0.12256
1480.84175	0.11893
1478.78217	0.11647
1476.72258	0.11550
1474.66300	0.11643
1472.60341	0.11917
1470.54383	0.12194
1468.48424	0.12350
1466.42466	0.12449
1464.36507	0.12561
1462.30549	0.12654
1460.24590	0.12722
1458.18632	0.12874
1456.12673	0.13123
1454.06715	0.13262
1452.00756	0.13241
1449.94797	0.13146
1447.88839	0.13031
1445.82880	0.12893
1443.76922	0.12723
1441.70963	0.12523
1439.65005	0.12293
1437.59046	0.12028
1435.53088	0.11752
1433.47129	0.11503
1431.41171	0.11272
1429.35212	0.11067
1427.29254	0.10928
1425.23295	0.10864
1423.17337	0.10868
1421.11378	0.10937
1419.05420	0.11077
1416.99461	0.11229
1414.93503	0.11318
1412.87544	0.11355
1410.81586	0.11377
1408.75627	0.11389
1406.69669	0.11371
1404.63710	0.11311
1402.57752	0.11229
1400.51793	0.11162
1398.45834	0.11128
1396.39876	0.11112
1394.33917	0.11090
1392.27959	0.11059
1390.22000	0.11023
1388.16042	0.10991
1386.10083	0.10949
1384.04125	0.10867
1381.98166	0.10748
1379.92208	0.10623
1377.86249	0.10510
1375.80291	0.10400
1373.74332	0.10283
1371.68374	0.10162
1369.62415	0.10027
1367.56457	0.09851
1365.50498	0.09629
1363.44540	0.09385
1361.38581	0.09167
1359.32623	0.09005
1357.26664	0.08894
1355.20706	0.08827
1353.14747	0.08798
1351.08789	0.08800
1349.02830	0.08824
1346.96872	0.08859
1344.90913	0.08894
1342.84954	0.08931
1340.78996	0.08976
1338.73037	0.09019
1336.67079	0.09049
1334.61120	0.09059
1332.55162	0.09048
1330.49203	0.09021
1328.43245	0.08989
1326.37286	0.08964
1324.31328	0.08953
1322.25369	0.08960
1320.19411	0.08986
1318.13452	0.09015
1316.07494	0.09038
1314.01535	0.09059
1311.95577	0.09080
1309.89618	0.09094
1307.83660	0.09094
1305.77701	0.09089
1303.71743	0.09087
1301.65784	0.09081
1299.59826	0.09064
1297.53867	0.09045
1295.47909	0.09032
1293.41950	0.09022
1291.35991	0.09012
1289.30033	0.09009
1287.24074	0.09017
1285.18116	0.09030
1283.12157	0.09041
1281.06199	0.09048
1279.00240	0.09048
1276.94282	0.09057
1274.88323	0.09080
1272.82365	0.09117
1270.76406	0.09174
1268.70448	0.09254
1266.64489	0.09352
1264.58531	0.09466
1262.52572	0.09592
1260.46614	0.09716
1258.40655	0.09817
1256.34697	0.09891
1254.28738	0.09950
1252.22780	0.10009
1250.16821	0.10076
1248.10863	0.10146
1246.04904	0.10213
1243.98946	0.10276
1241.92987	0.10334
1239.87029	0.10380
1237.81070	0.10398
1235.75111	0.10379
1233.69153	0.10329
1231.63194	0.10257
1229.57236	0.10163
1227.51277	0.10037
1225.45319	0.09885
1223.39360	0.09720
1221.33402	0.09552
1219.27443	0.09379
1217.21485	0.09191
1215.15526	0.08986
1213.09568	0.08777
1211.03609	0.08575
1208.97651	0.08375
1206.91692	0.08179
1204.85734	0.07986
1202.79775	0.07790
1200.73817	0.07598
1198.67858	0.07426
1196.61900	0.07277
1194.55941	0.07146
1192.49983	0.07034
1190.44024	0.06939
1188.38066	0.06854
1186.32107	0.06781
1184.26149	0.06726
1182.20190	0.06695
1180.14231	0.06699
1178.08273	0.06749
1176.02314	0.06831
1173.96356	0.06929
1171.90397	0.07032
1169.84439	0.07122
1167.78480	0.07182
1165.72522	0.07218
1163.66563	0.07238
1161.60605	0.07231
1159.54646	0.07194
1157.48688	0.07131
1155.42729	0.07044
1153.36771	0.06936
1151.30812	0.06819
1149.24854	0.06699
1147.18895	0.06580
1145.12937	0.06473
1143.06978	0.06391
1141.01020	0.06335
1138.95061	0.06303
1136.89103	0.06297
1134.83144	0.06314
1132.77186	0.06334
1130.71227	0.06355
1128.65268	0.06391
1126.59310	0.06424
1124.53351	0.06429
1122.47393	0.06422
1120.41434	0.06416
1118.35476	0.06411
1116.29517	0.06415
1114.23559	0.06431
1112.17600	0.06453
1110.11642	0.06473
1108.05683	0.06499
1105.99725	0.06528
1103.93766	0.06550
1101.87808	0.06570
1099.81849	0.06593
1097.75891	0.06619
1095.69932	0.06659
1093.63974	0.06729
1091.58015	0.06832
1089.52057	0.06962
1087.46098	0.07110
1085.40140	0.07262
1083.34181	0.07419
1081.28223	0.07569
1079.22264	0.07701
1077.16306	0.07811
1075.10347	0.07894
1073.04388	0.07948
1070.98430	0.07975
1068.92471	0.07974
1066.86513	0.07953
1064.80554	0.07915
1062.74596	0.07860
1060.68637	0.07806
1058.62679	0.07759
1056.56720	0.07705
1054.50762	0.07641
1052.44803	0.07579
1050.38845	0.07509
1048.32886	0.07413
1046.26928	0.07306
1044.20969	0.07206
1042.15011	0.07100
1040.09052	0.06974
1038.03094	0.06851
1035.97135	0.06759
1033.91177	0.06697
1031.85218	0.06639
1029.79260	0.06569
1027.73301	0.06474
1025.67343	0.06363
1023.61384	0.06235
1021.55425	0.06095
1019.49467	0.05964
1017.43508	0.05853
1015.37550	0.05753
1013.31591	0.05654
1011.25633	0.05553
1009.19674	0.05445
1007.13716	0.05325
1005.07757	0.05202
1003.01799	0.05085
1000.95840	0.04972
998.89882	0.04861
996.83923	0.04757
994.77965	0.04666
992.72006	0.04589
990.66048	0.04523
988.60089	0.04457
986.54131	0.04393
984.48172	0.04346
982.42214	0.04307
980.36255	0.04264
978.30297	0.04220
976.24338	0.04176
974.18380	0.04135
972.12421	0.04100
970.06463	0.04082
968.00504	0.04082
965.94545	0.04079
963.88587	0.04055
961.82628	0.04018
959.76670	0.03984
957.70711	0.03950
955.64753	0.03907
953.58794	0.03862
951.52836	0.03836
949.46877	0.03839
947.40919	0.03848
945.34960	0.03840
943.29002	0.03826
941.23043	0.03822
939.17085	0.03826
937.11126	0.03833
935.05168	0.03843
932.99209	0.03849
930.93251	0.03852
928.87292	0.03846
926.81334	0.03830
924.75375	0.03811
922.69417	0.03780
920.63458	0.03736
918.57500	0.03691
916.51541	0.03643
914.45582	0.03607
912.39624	0.03588
910.33665	0.03573
908.27707	0.03564
906.21748	0.03566
904.15790	0.03576
902.09831	0.03587
900.03873	0.03591
897.97914	0.03577
895.91956	0.03548
893.85997	0.03511
891.80039	0.03475
889.74080	0.03450
887.68122	0.03429
885.62163	0.03419
883.56205	0.03423
881.50246	0.03423
879.44288	0.03413
877.38329	0.03409
875.32371	0.03409
873.26412	0.03402
871.20454	0.03393
869.14495	0.03394
867.08537	0.03407
865.02578	0.03418
862.96620	0.03418
860.90661	0.03417
858.84702	0.03424
856.78744	0.03442
854.72785	0.03471
852.66827	0.03497
850.60868	0.03514
848.54910	0.03524
846.48951	0.03521
844.42993	0.03503
842.37034	0.03493
840.31076	0.03510
838.25117	0.03548
836.19159	0.03587
834.13200	0.03622
832.07242	0.03667
830.01283	0.03711
827.95325	0.03742
825.89366	0.03785
823.83408	0.03835
821.77449	0.03862
819.71491	0.03874
817.65532	0.03897
815.59574	0.03941
813.53615	0.04003
811.47657	0.04067
809.41698	0.04124
807.35740	0.04169
805.29781	0.04208
803.23822	0.04252
801.17864	0.04298
799.11905	0.04341
797.05947	0.04390
794.99988	0.04423
792.94030	0.04434
790.88071	0.04458
788.82113	0.04506
786.76154	0.04555
784.70196	0.04596
782.64237	0.04634
780.58279	0.04671
778.52320	0.04711
776.46362	0.04748
774.40403	0.04781
772.34445	0.04810
770.28486	0.04839
768.22528	0.04868
766.16569	0.04897
764.10611	0.04922
762.04652	0.04959
759.98694	0.05014
757.92735	0.05064
755.86777	0.05096
753.80818	0.05132
751.74859	0.05182
749.68901	0.05227
747.62942	0.05273
745.56984	0.05325
743.51025	0.05358
741.45067	0.05364
739.39108	0.05373
737.33150	0.05397
735.27191	0.05428
733.21233	0.05477
731.15274	0.05551
729.09316	0.05630
727.03357	0.05708
724.97399	0.05797
722.91440	0.05905
720.85482	0.06000
718.79523	0.06104
716.73565	0.06165
714.67606	0.06230
712.61648	0.06313
710.55689	0.06415
708.49731	0.06526
706.43772	0.06648
704.37814	0.06789
702.31855	0.06928
700.25897	0.07025
698.19938	0.07068
696.13979	0.07067
694.08021	0.07053
692.02062	0.07053
689.96104	0.07068
687.90145	0.07095
685.84187	0.07126
683.78228	0.07147
681.72270	0.07156
679.66311	0.07157
677.60353	0.07160
675.54394	0.07174
673.48436	0.07192
671.42477	0.07351
669.36519	0.07580
667.30560	0.07086
665.24602	0.07407
663.18643	0.07348
661.12685	0.07313
659.06726	0.07328
657.00768	0.07325
654.94809	0.07315
652.88851	0.07330
650.82892	0.07363
648.76934	0.07373
646.70975	0.07380
644.65016	0.07378
642.59058	0.07383
640.53099	0.07394
638.47141	0.07404
636.41182	0.07418
634.35224	0.07445
632.29265	0.07479
630.23307	0.07499
628.17348	0.07508
626.11390	0.07521
624.05431	0.07532
621.99473	0.07528
619.93514	0.07508
617.87556	0.07491
615.81597	0.07492
613.75639	0.07503
611.69680	0.07502
609.63722	0.07485
607.57763	0.07475
605.51805	0.07487
603.45846	0.07492
601.39888	0.07473
599.33929	0.07457
597.27971	0.07456
595.22012	0.07456
593.16054	0.07443
591.10095	0.07412
589.04136	0.07397
586.98178	0.07420
584.92219	0.07453
582.86261	0.07472
580.80302	0.07481
578.74344	0.07492
576.68385	0.07505
574.62427	0.07494
572.56468	0.07478
570.50510	0.07488
568.44551	0.07497
566.38593	0.07477
564.32634	0.07451
562.26676	0.07454
560.20717	0.07484
558.14759	0.07511
556.08800	0.07510
554.02842	0.07499
551.96883	0.07494
549.90925	0.07479
547.84966	0.07453
545.79008	0.07448
543.73049	0.07449
541.67091	0.07436
539.61132	0.07430
537.55173	0.07436
535.49215	0.07429
533.43256	0.07397
531.37298	0.07370
529.31339	0.07369
527.25381	0.07376
525.19422	0.07372
523.13464	0.07350
521.07505	0.07317
519.01547	0.07284
516.95588	0.07258
514.89630	0.07238
512.83671	0.07218
510.77713	0.07185
508.71754	0.07132
506.65796	0.07075
504.59837	0.07034
502.53879	0.07009
500.47920	0.06971
498.41962	0.06907
496.36003	0.06853
494.30045	0.06837
492.24086	0.06834
490.18128	0.06815
488.12169	0.06780
486.06211	0.06735
484.00252	0.06688
481.94293	0.06661
479.88335	0.06665
477.82376	0.06675
475.76418	0.06666
473.70459	0.06645
471.64501	0.06636
469.58542	0.06634
467.52584	0.06615
465.46625	0.06595
463.40667	0.06594
461.34708	0.06588
459.28750	0.06556
457.22791	0.06505
455.16833	0.06457
453.10874	0.06417
451.04916	0.06369
448.98957	0.06320
446.92999	0.06276
444.87040	0.06217
442.81082	0.06155
440.75123	0.06121
438.69165	0.06101
436.63206	0.06069
434.57248	0.06009
432.51289	0.05925
430.45330	0.05840
428.39372	0.05784
426.33413	0.05763
424.27455	0.05750
422.21496	0.05700
420.15538	0.05627
418.09579	0.05566
416.03621	0.05536
413.97662	0.05565
411.91704	0.05634
409.85745	0.05659
407.79787	0.05585
405.73828	0.05457
403.67870	0.05362
401.61911	0.05324
399.55953	0.05313
