3997.70013,0.03719
3995.64052,0.03672
3993.58092,0.03633
3991.52131,0.03639
3989.46170,0.03681
3987.40209,0.03716
3985.34248,0.03705
3983.28287,0.03707
3981.22327,0.03703
3979.16366,0.03631
3977.10405,0.03581
3975.04444,0.03594
3972.98483,0.03610
3970.92522,0.03622
3968.86561,0.03643
3966.80601,0.03666
3964.74640,0.03694
3962.68679,0.03683
3960.62718,0.03566
3958.56757,0.03429
3956.50796,0.03408
3954.44835,0.03478
3952.38875,0.03570
3950.32914,0.03666
3948.26953,0.03708
3946.20992,0.03682
3944.15031,0.03654
3942.09070,0.03650
3940.03109,0.03672
3937.97149,0.03711
3935.91188,0.03745
3933.85227,0.03770
3931.79266,0.03796
3929.73305,0.03809
3927.67344,0.03767
3925.61384,0.03675
3923.55423,0.03603
3921.49462,0.03601
3919.43501,0.03639
3917.37540,0.03685
3915.31579,0.03720
3913.25618,0.03720
3911.19658,0.03682
3909.13697,0.03634
3907.07736,0.03634
3905.01775,0.03705
3902.95814,0.03742
3900.89853,0.03663
3898.83892,0.03604
3896.77932,0.03622
3894.71971,0.03615
3892.66010,0.03562
3890.60049,0.03507
3888.54088,0.03498
3886.48127,0.03577
3884.42166,0.03658
3882.36206,0.03629
3880.30245,0.03580
3878.24284,0.03613
3876.18323,0.03693
3874.12362,0.03737
3872.06401,0.03696
3870.00441,0.03617
3867.94480,0.03557
3865.88519,0.03570
3863.82558,0.03696
3861.76597,0.03782
3859.70636,0.03733
3857.64675,0.03661
3855.58715,0.03621
3853.52754,0.03634
3851.46793,0.03672
3849.40832,0.03673
3847.34871,0.03659
3845.28910,0.03597
3843.22949,0.03490
3841.16989,0.03437
3839.11028,0.03485
3837.05067,0.03591
3834.99106,0.03631
3832.93145,0.03603
3830.87184,0.03602
3828.81223,0.03654
3826.75263,0.03740
3824.69302,0.03820
3822.63341,0.03836
3820.57380,0.03819
3818.51419,0.03837
3816.45458,0.03808
3814.39498,0.03760
3812.33537,0.03794
3810.27576,0.03823
3808.21615,0.03793
3806.15654,0.03781
3804.09693,0.03796
3802.03732,0.03802
3799.97772,0.03806
3797.91811,0.03786
3795.85850,0.03777
3793.79889,0.03808
3791.73928,0.03839
3789.67967,0.03845
3787.62006,0.03862
3785.56046,0.03915
3783.50085,0.03961
3781.44124,0.03998
3779.38163,0.04004
3777.32202,0.03980
3775.26241,0.03955
3773.20280,0.03921
3771.14320,0.03913
3769.08359,0.03932
3767.02398,0.03944
3764.96437,0.03972
3762.90476,0.04030
3760.84515,0.04115
3758.78555,0.04225
3756.72594,0.04279
3754.66633,0.04260
3752.60672,0.04193
3750.54711,0.04092
3748.48750,0.04118
3746.42789,0.04275
3744.36829,0.04418
3742.30868,0.04434
3740.24907,0.04395
3738.18946,0.04413
3736.12985,0.04547
3734.07024,0.04673
3732.01063,0.04687
3729.95103,0.04688
3727.89142,0.04718
3725.83181,0.04731
3723.77220,0.04760
3721.71259,0.04838
3719.65298,0.04910
3717.59337,0.04992
3715.53377,0.05070
3713.47416,0.05087
3711.41455,0.05149
3709.35494,0.05331
3707.29533,0.05490
3705.23572,0.05643
3703.17612,0.05833
3701.11651,0.05994
3699.05690,0.06113
3696.99729,0.06258
3694.93768,0.06444
3692.87807,0.06653
3690.81846,0.06882
3688.75886,0.07185
3686.69925,0.07557
3684.63964,0.07896
3682.58003,0.08245
3680.52042,0.08638
3678.46081,0.09007
3676.40120,0.09402
3674.34160,0.09864
3672.28199,0.10248
3670.22238,0.10697
3668.16277,0.11203
3666.10316,0.11623
3664.04355,0.12116
3661.98394,0.12650
3659.92434,0.13114
3657.86473,0.13643
3655.80512,0.14300
3653.74551,0.14863
3651.68590,0.15393
3649.62629,0.16063
3647.56669,0.16681
3645.50708,0.17164
3643.44747,0.17625
3641.38786,0.18064
3639.32825,0.18545
3637.26864,0.19113
3635.20903,0.19645
3633.14943,0.20120
3631.08982,0.20651
3629.03021,0.21284
3626.97060,0.21869
3624.91099,0.22362
3622.85138,0.22830
3620.79177,0.23317
3618.73217,0.23891
3616.67256,0.24410
3614.61295,0.24883
3612.55334,0.25445
3610.49373,0.25979
3608.43412,0.26443
3606.37451,0.26917
3604.31491,0.27390
3602.25530,0.27885
3600.19569,0.28418
3598.13608,0.28966
3596.07647,0.29483
3594.01686,0.29939
3591.95726,0.30354
3589.89765,0.30789
3587.83804,0.31367
3585.77843,0.32018
3583.71882,0.32564
3581.65921,0.33058
3579.59960,0.33576
3577.54000,0.34116
3575.48039,0.34696
3573.42078,0.35257
3571.36117,0.35755
3569.30156,0.36292
3567.24195,0.36975
3565.18234,0.37627
3563.12274,0.38135
3561.06313,0.38696
3559.00352,0.39359
3556.94391,0.40024
3554.88430,0.40599
3552.82469,0.41132
3550.76508,0.41727
3548.70548,0.42359
3546.64587,0.43008
3544.58626,0.43652
3542.52665,0.44259
3540.46704,0.44861
3538.40743,0.45446
3536.34783,0.46029
3534.28822,0.46674
3532.22861,0.47360
3530.16900,0.47992
3528.10939,0.48533
3526.04978,0.49093
3523.99017,0.49737
3521.93057,0.50418
3519.87096,0.51031
3517.81135,0.51562
3515.75174,0.52130
3513.69213,0.52768
3511.63252,0.53391
3509.57291,0.53987
3507.51331,0.54574
3505.45370,0.55127
3503.39409,0.55709
3501.33448,0.56314
3499.27487,0.56866
3497.21526,0.57419
3495.15565,0.58017
3493.09605,0.58602
3491.03644,0.59191
3488.97683,0.59776
3486.91722,0.60320
3484.85761,0.60863
3482.79800,0.61436
3480.73840,0.62044
3478.67879,0.62628
3476.61918,0.63179
3474.55957,0.63712
3472.49996,0.64219
3470.44035,0.64714
3468.38074,0.65216
3466.32114,0.65770
3464.26153,0.66399
3462.20192,0.66990
3460.14231,0.67471
3458.08270,0.67969
3456.02309,0.68592
3453.96348,0.69235
3451.90388,0.69743
3449.84427,0.70193
3447.78466,0.70695
3445.72505,0.71248
3443.66544,0.71806
3441.60583,0.72337
3439.54622,0.72854
3437.48662,0.73379
3435.42701,0.73916
3433.36740,0.74438
3431.30779,0.74908
3429.24818,0.75348
3427.18857,0.75842
3425.12897,0.76379
3423.06936,0.76931
3421.00975,0.77483
3418.95014,0.77965
3416.89053,0.78366
3414.83092,0.78764
3412.77131,0.79222
3410.71171,0.79671
3408.65210,0.80017
3406.59249,0.80354
3404.53288,0.80767
3402.47327,0.81214
3400.41366,0.81637
3398.35405,0.81999
3396.29445,0.82295
3394.23484,0.82533
3392.17523,0.82786
3390.11562,0.83124
3388.05601,0.83489
3385.99640,0.83796
3383.93679,0.84057
3381.87719,0.84305
3379.81758,0.84554
3377.75797,0.84765
3375.69836,0.84893
3373.63875,0.85022
3371.57914,0.85249
3369.51954,0.85536
3367.45993,0.85763
3365.40032,0.85909
3363.34071,0.86076
3361.28110,0.86311
3359.22149,0.86545
3357.16188,0.86773
3355.10228,0.86985
3353.04267,0.87147
3350.98306,0.87349
3348.92345,0.87605
3346.86384,0.87840
3344.80423,0.88066
3342.74462,0.88354
3340.68502,0.88692
3338.62541,0.89014
3336.56580,0.89321
3334.50619,0.89669
3332.44658,0.90125
3330.38697,0.90674
3328.32736,0.91257
3326.26776,0.91843
3324.20815,0.92448
3322.14854,0.93132
3320.08893,0.93876
3318.02932,0.94649
3315.96971,0.95471
3313.91011,0.96297
3311.85050,0.97136
3309.79089,0.98039
3307.73128,0.98988
3305.67167,1.00011
3303.61206,1.01133
3301.55245,1.02293
3299.49285,1.03454
3297.43324,1.04609
3295.37363,1.05716
3293.31402,1.06794
3291.25441,1.07865
3289.19480,1.08895
3287.13519,1.09840
3285.07559,1.10579
3283.01598,1.11041
3280.95637,1.11328
3278.89676,1.11463
3276.83715,1.11363
3274.77754,1.11024
3272.71793,1.10495
3270.65833,1.09817
3268.59872,1.09025
3266.53911,1.08129
3264.47950,1.07146
3262.41989,1.06101
3260.36028,1.05015
3258.30068,1.03925
3256.24107,1.02906
3254.18146,1.01962
3252.12185,1.00999
3250.06224,1.00040
3248.00263,0.99150
3245.94302,0.98283
3243.88342,0.97422
3241.82381,0.96593
3239.76420,0.95778
3237.70459,0.94960
3235.64498,0.94181
3233.58537,0.93438
3231.52576,0.92651
3229.46616,0.91836
3227.40655,0.91082
3225.34694,0.90325
3223.28733,0.89507
3221.22772,0.88720
3219.16811,0.87976
3217.10850,0.87190
3215.04890,0.86330
3212.98929,0.85450
3210.92968,0.84632
3208.87007,0.83831
3206.81046,0.82996
3204.75085,0.82157
3202.69125,0.81307
3200.63164,0.80443
3198.57203,0.79576
3196.51242,0.78660
3194.45281,0.77696
3192.39320,0.76740
3190.33359,0.75795
3188.27399,0.74834
3186.21438,0.73832
3184.15477,0.72819
3182.09516,0.71865
3180.03555,0.70986
3177.97594,0.70114
3175.91633,0.69126
3173.85673,0.68034
3171.79712,0.67038
3169.73751,0.66213
3167.67790,0.65389
3165.61829,0.64439
3163.55868,0.63427
3161.49907,0.62482
3159.43947,0.61615
3157.37986,0.60741
3155.32025,0.59824
3153.26064,0.58888
3151.20103,0.57954
3149.14142,0.57056
3147.08182,0.56220
3145.02221,0.55405
3142.96260,0.54572
3140.90299,0.53730
3138.84338,0.52898
3136.78377,0.52098
3134.72416,0.51337
3132.66456,0.50613
3130.60495,0.49893
3128.54534,0.49171
3126.48573,0.48493
3124.42612,0.47836
3122.36651,0.47193
3120.30690,0.46594
3118.24730,0.45998
3116.18769,0.45383
3114.12808,0.44787
3112.06847,0.44235
3110.00886,0.43709
3107.94925,0.43177
3105.88965,0.42623
3103.83004,0.42081
3101.77043,0.41601
3099.71082,0.41189
3097.65121,0.40742
3095.59160,0.40231
3093.53199,0.39748
3091.47239,0.39319
3089.41278,0.38928
3087.35317,0.38553
3085.29356,0.38154
3083.23395,0.37721
3081.17434,0.37269
3079.11473,0.36818
3077.05513,0.36383
3074.99552,0.35920
3072.93591,0.35419
3070.87630,0.34908
3068.81669,0.34367
3066.75708,0.33811
3064.69747,0.33263
3062.63787,0.32707
3060.57826,0.32125
3058.51865,0.31527
3056.45904,0.30926
3054.39943,0.30305
3052.33982,0.29686
3050.28022,0.29094
3048.22061,0.28484
3046.16100,0.27844
3044.10139,0.27225
3042.04178,0.26651
3039.98217,0.26078
3037.92256,0.25508
3035.86296,0.24995
3033.80335,0.24518
3031.74374,0.24026
3029.68413,0.23544
3027.62452,0.23073
3025.56491,0.22601
3023.50530,0.22172
3021.44570,0.21803
3019.38609,0.21456
3017.32648,0.21093
3015.26687,0.20718
3013.20726,0.20364
3011.14765,0.20047
3009.08804,0.19751
3007.02844,0.19463
3004.96883,0.19188
3002.90922,0.18934
3000.84961,0.18731
2998.79000,0.18612
2996.73039,0.18537
2994.67079,0.18434
2992.61118,0.18297
2990.55157,0.18158
2988.49196,0.18039
2986.43235,0.17925
2984.37274,0.17815
2982.31313,0.17741
2980.25353,0.17665
2978.19392,0.17516
2976.13431,0.17318
2974.07470,0.17134
2972.01509,0.16978
2969.95548,0.16808
2967.89587,0.16592
2965.83627,0.16346
2963.77666,0.16073
2961.71705,0.15764
2959.65744,0.15472
2957.59783,0.15259
2955.53822,0.15089
2953.47861,0.14918
2951.41901,0.14771
2949.35940,0.14681
2947.29979,0.14653
2945.24018,0.14654
2943.18057,0.14662
2941.12096,0.14677
2939.06136,0.14707
2937.00175,0.14736
2934.94214,0.14721
2932.88253,0.14659
2930.82292,0.14560
2928.76331,0.14395
2926.70370,0.14144
2924.64410,0.13829
2922.58449,0.13523
2920.52488,0.13276
2918.46527,0.13036
2916.40566,0.12750
2914.34605,0.12434
2912.28644,0.12122
2910.22684,0.11826
2908.16723,0.11544
2906.10762,0.11293
2904.04801,0.11091
2901.98840,0.10942
2899.92879,0.10813
2897.86918,0.10672
2895.80958,0.10530
2893.74997,0.10391
2891.69036,0.10255
2889.63075,0.10151
2887.57114,0.10069
2885.51153,0.09999
2883.45193,0.09962
2881.39232,0.09936
2879.33271,0.09898
2877.27310,0.09854
2875.21349,0.09796
2873.15388,0.09710
2871.09427,0.09575
2869.03467,0.09401
2866.97506,0.09222
2864.91545,0.09068
2862.85584,0.08939
2860.79623,0.08820
2858.73662,0.08712
2856.67701,0.08615
2854.61741,0.08534
2852.55780,0.08453
2850.49819,0.08329
2848.43858,0.08161
2846.37897,0.07976
2844.31936,0.07785
2842.25975,0.07622
2840.20015,0.07509
2838.14054,0.07407
2836.08093,0.07299
2834.02132,0.07216
2831.96171,0.07143
2829.90210,0.07072
2827.84250,0.07011
2825.78289,0.06951
2823.72328,0.06896
2821.66367,0.06867
2819.60406,0.06845
2817.54445,0.06788
2815.48484,0.06711
2813.42524,0.06644
2811.36563,0.06592
2809.30602,0.06548
2807.24641,0.06511
2805.18680,0.06478
2803.12719,0.06432
2801.06758,0.06372
2799.00798,0.06328
2796.94837,0.06288
2794.88876,0.06229
2792.82915,0.06175
2790.76954,0.06146
2788.70993,0.06124
2786.65032,0.06066
2784.59072,0.05982
2782.53111,0.05917
2780.47150,0.05869
2778.41189,0.05812
2776.35228,0.05756
2774.29267,0.05704
2772.23307,0.05654
2770.17346,0.05621
2768.11385,0.05601
2766.05424,0.05570
2763.99463,0.05515
2761.93502,0.05453
2759.87541,0.05389
2757.81581,0.05313
2755.75620,0.05267
2753.69659,0.05256
2751.63698,0.05217
2749.57737,0.05151
2747.51776,0.05083
2745.45815,0.05026
2743.39855,0.04990
2741.33894,0.04959
2739.27933,0.04918
2737.21972,0.04887
2735.16011,0.04865
2733.10050,0.04820
2731.04089,0.04765
2728.98129,0.04733
2726.92168,0.04717
2724.86207,0.04713
2722.80246,0.04712
2720.74285,0.04681
2718.68324,0.04625
2716.62364,0.04576
2714.56403,0.04543
2712.50442,0.04518
2710.44481,0.04489
2708.38520,0.04466
2706.32559,0.04443
2704.26598,0.04394
2702.20638,0.04346
2700.14677,0.04339
2698.08716,0.04335
2696.02755,0.04297
2693.96794,0.04262
2691.90833,0.04245
2689.84872,0.04224
2687.78912,0.04210
2685.72951,0.04211
2683.66990,0.04200
2681.61029,0.04170
2679.55068,0.04143
2677.49107,0.04119
2675.43146,0.04087
2673.37186,0.04076
2671.31225,0.04088
2669.25264,0.04074
2667.19303,0.04027
2665.13342,0.03996
2663.07381,0.03996
2661.01421,0.03997
2658.95460,0.03991
2656.89499,0.03992
2654.83538,0.04013
2652.77577,0.04030
2650.71616,0.03995
2648.65655,0.03937
2646.59695,0.03915
2644.53734,0.03916
2642.47773,0.03899
2640.41812,0.03879
2638.35851,0.03888
2636.29890,0.03903
2634.23929,0.03890
2632.17969,0.03837
2630.12008,0.03790
2628.06047,0.03814
2626.00086,0.03853
2623.94125,0.03826
2621.88164,0.03788
2619.82203,0.03790
2617.76243,0.03804
2615.70282,0.03804
2613.64321,0.03809
2611.58360,0.03805
2609.52399,0.03760
2607.46438,0.03702
2605.40478,0.03677
2603.34517,0.03679
2601.28556,0.03673
2599.22595,0.03647
2597.16634,0.03608
2595.10673,0.03553
2593.04712,0.03509
2590.98752,0.03516
2588.92791,0.03517
2586.86830,0.03486
2584.80869,0.03469
2582.74908,0.03427
2580.68947,0.03377
2578.62986,0.03387
2576.57026,0.03428
2574.51065,0.03433
2572.45104,0.03401
2570.39143,0.03374
2568.33182,0.03357
2566.27221,0.03361
2564.21260,0.03390
2562.15300,0.03384
2560.09339,0.03344
2558.03378,0.03328
2555.97417,0.03317
2553.91456,0.03281
2551.85495,0.03245
2549.79535,0.03237
2547.73574,0.03261
2545.67613,0.03288
2543.61652,0.03281
2541.55691,0.03277
2539.49730,0.03296
2537.43769,0.03298
2535.37809,0.03277
2533.31848,0.03257
2531.25887,0.03275
2529.19926,0.03326
2527.13965,0.03360
2525.08004,0.03360
2523.02043,0.03330
2520.96083,0.03289
2518.90122,0.03261
2516.84161,0.03266
2514.78200,0.03286
2512.72239,0.03283
2510.66278,0.03277
2508.60317,0.03280
2506.54357,0.03287
2504.48396,0.03321
2502.42435,0.03339
2500.36474,0.03303
2498.30513,0.03264
2496.24552,0.03269
2494.18592,0.03281
2492.12631,0.03261
2490.06670,0.03242
2488.00709,0.03280
2485.94748,0.03366
2483.88787,0.03400
2481.82826,0.03358
2479.76866,0.03318
2477.70905,0.03307
2475.64944,0.03295
2473.58983,0.03281
2471.53022,0.03283
2469.47061,0.03309
2467.41100,0.03329
2465.35140,0.03317
2463.29179,0.03302
2461.23218,0.03283
2459.17257,0.03257
2457.11296,0.03252
2455.05335,0.03276
2452.99374,0.03303
2450.93414,0.03302
2448.87453,0.03301
2446.81492,0.03336
2444.75531,0.03377
2442.69570,0.03398
2440.63609,0.03404
2438.57649,0.03401
2436.51688,0.03391
2434.45727,0.03389
2432.39766,0.03395
2430.33805,0.03396
2428.27844,0.03409
2426.21883,0.03419
2424.15923,0.03402
2422.09962,0.03391
2420.04001,0.03389
2417.98040,0.03377
2415.92079,0.03373
2413.86118,0.03376
2411.80157,0.03394
2409.74197,0.03434
2407.68236,0.03433
2405.62275,0.03396
2403.56314,0.03392
2401.50353,0.03401
2399.44392,0.03402
2397.38431,0.03413
2395.32471,0.03428
2393.26510,0.03440
2391.20549,0.03448
2389.14588,0.03465
2387.08627,0.03493
2385.02666,0.03499
2382.96706,0.03476
2380.90745,0.03453
2378.84784,0.03436
2376.78823,0.03415
2374.72862,0.03426
2372.66901,0.03469
2370.60940,0.03482
2368.54980,0.03487
2366.49019,0.03535
2364.43058,0.03570
2362.37097,0.03560
2360.31136,0.03544
2358.25175,0.03555
2356.19214,0.03597
2354.13254,0.03646
2352.07293,0.03679
2350.01332,0.03697
2347.95371,0.03723
2345.89410,0.03729
2343.83449,0.03708
2341.77488,0.03740
2339.71528,0.03779
2337.65567,0.03734
2335.59606,0.03709
2333.53645,0.03757
2331.47684,0.03798
2329.41723,0.03835
2327.35763,0.03927
2325.29802,0.04028
2323.23841,0.04034
2321.17880,0.03961
2319.11919,0.03888
2317.05958,0.03858
2314.99997,0.03867
2312.94037,0.03881
2310.88076,0.03884
2308.82115,0.03877
2306.76154,0.03865
2304.70193,0.03845
2302.64232,0.03835
2300.58271,0.03839
2298.52311,0.03824
2296.46350,0.03800
2294.40389,0.03807
2292.34428,0.03849
2290.28467,0.03896
2288.22506,0.03915
2286.16545,0.03895
2284.10585,0.03847
2282.04624,0.03801
2279.98663,0.03813
2277.92702,0.03855
2275.86741,0.03865
2273.80780,0.03854
2271.74820,0.03844
2269.68859,0.03820
2267.62898,0.03770
2265.56937,0.03729
2263.50976,0.03721
2261.45015,0.03757
2259.39054,0.03793
2257.33094,0.03766
2255.27133,0.03742
2253.21172,0.03772
2251.15211,0.03816
2249.09250,0.03846
2247.03289,0.03857
2244.97328,0.03829
2242.91368,0.03778
2240.85407,0.03747
2238.79446,0.03767
2236.73485,0.03869
2234.67524,0.03968
2232.61563,0.03956
2230.55602,0.03862
2228.49642,0.03750
2226.43681,0.03714
2224.37720,0.03782
2222.31759,0.03875
2220.25798,0.03927
2218.19837,0.03901
2216.13877,0.03809
2214.07916,0.03735
2212.01955,0.03748
2209.95994,0.03798
2207.90033,0.03815
2205.84072,0.03823
2203.78111,0.03870
2201.72151,0.03921
2199.66190,0.03889
2197.60229,0.03787
2195.54268,0.03737
2193.48307,0.03783
2191.42346,0.03853
2189.36385,0.03876
2187.30425,0.03845
2185.24464,0.03782
2183.18503,0.03737
2181.12542,0.03782
2179.06581,0.03909
2177.00620,0.03985
2174.94659,0.03896
2172.88699,0.03739
2170.82738,0.03703
2168.76777,0.03736
2166.70816,0.03697
2164.64855,0.03658
2162.58894,0.03615
2160.52934,0.03451
2158.46973,0.03304
2156.41012,0.03278
2154.35051,0.03355
2152.29090,0.03568
2150.23129,0.03820
2148.17168,0.03952
2146.11208,0.03921
2144.05247,0.03804
2141.99286,0.03745
2139.93325,0.03789
2137.87364,0.03853
2135.81403,0.03891
2133.75442,0.03941
2131.69482,0.04021
2129.63521,0.04067
2127.57560,0.04064
2125.51599,0.04097
2123.45638,0.04179
2121.39677,0.04247
2119.33716,0.04265
2117.27756,0.04269
2115.21795,0.04247
2113.15834,0.04168
2111.09873,0.04137
2109.03912,0.04171
2106.97951,0.04211
2104.91991,0.04255
2102.86030,0.04278
2100.80069,0.04269
2098.74108,0.04213
2096.68147,0.04126
2094.62186,0.04082
2092.56225,0.04083
2090.50265,0.04081
2088.44304,0.04059
2086.38343,0.04018
2084.32382,0.03996
2082.26421,0.04016
2080.20460,0.04005
2078.14499,0.03965
2076.08539,0.03966
2074.02578,0.03948
2071.96617,0.03900
2069.90656,0.03894
2067.84695,0.03886
2065.78734,0.03785
2063.72773,0.03677
2061.66813,0.03682
2059.60852,0.03748
2057.54891,0.03754
2055.48930,0.03702
2053.42969,0.03699
2051.37008,0.03700
2049.31048,0.03611
2047.25087,0.03500
2045.19126,0.03444
2043.13165,0.03359
2041.07204,0.03231
2039.01243,0.03157
2036.95282,0.03086
2034.89322,0.02977
2032.83361,0.02935
2030.77400,0.02975
2028.71439,0.03008
2026.65478,0.02997
2024.59517,0.02978
2022.53556,0.02954
2020.47596,0.02846
2018.41635,0.02710
2016.35674,0.02666
2014.29713,0.02711
2012.23752,0.02776
2010.17791,0.02788
2008.11830,0.02757
2006.05870,0.02758
2003.99909,0.02804
2001.93948,0.02844
1999.87987,0.02820
1997.82026,0.02716
1995.76065,0.02624
1993.70105,0.02625
1991.64144,0.02664
1989.58183,0.02712
1987.52222,0.02766
1985.46261,0.02733
1983.40300,0.02682
1981.34339,0.02748
1979.28379,0.02764
1977.22418,0.02635
1975.16457,0.02519
1973.10496,0.02453
1971.04535,0.02421
1968.98574,0.02465
1966.92613,0.02557
1964.86653,0.02555
1962.80692,0.02453
1960.74731,0.02377
1958.68770,0.02372
1956.62809,0.02402
1954.56848,0.02413
1952.50887,0.02412
1950.44927,0.02416
1948.38966,0.02421
1946.33005,0.02442
1944.27044,0.02463
1942.21083,0.02478
1940.15122,0.02504
1938.09162,0.02528
1936.03201,0.02551
1933.97240,0.02565
1931.91279,0.02545
1929.85318,0.02507
1927.79357,0.02478
1925.73396,0.02440
1923.67436,0.02420
1921.61475,0.02464
1919.55514,0.02525
1917.49553,0.02538
1915.43592,0.02516
1913.37631,0.02521
1911.31670,0.02552
1909.25710,0.02557
1907.19749,0.02551
1905.13788,0.02569
1903.07827,0.02589
1901.01866,0.02581
1898.95905,0.02565
1896.89944,0.02551
1894.83984,0.02525
1892.78023,0.02512
1890.72062,0.02526
1888.66101,0.02540
1886.60140,0.02532
1884.54179,0.02509
1882.48219,0.02493
1880.42258,0.02499
1878.36297,0.02503
1876.30336,0.02491
1874.24375,0.02494
1872.18414,0.02498
1870.12453,0.02487
1868.06493,0.02496
1866.00532,0.02515
1863.94571,0.02508
1861.88610,0.02477
1859.82649,0.02456
1857.76688,0.02468
1855.70727,0.02492
1853.64767,0.02500
1851.58806,0.02497
1849.52845,0.02499
1847.46884,0.02488
1845.40923,0.02491
1843.34962,0.02530
1841.29002,0.02547
1839.23041,0.02543
1837.17080,0.02552
1835.11119,0.02564
1833.05158,0.02571
1830.99197,0.02592
1828.93236,0.02616
1826.87276,0.02612
1824.81315,0.02599
1822.75354,0.02629
1820.69393,0.02666
1818.63432,0.02659
1816.57471,0.02627
1814.51510,0.02629
1812.45550,0.02671
1810.39589,0.02720
1808.33628,0.02749
1806.27667,0.02760
1804.21706,0.02783
1802.15745,0.02806
1800.09784,0.02814
1798.03824,0.02829
1795.97863,0.02857
1793.91902,0.02887
1791.85941,0.02926
1789.79980,0.02954
1787.74019,0.02967
1785.68059,0.02991
1783.62098,0.03029
1781.56137,0.03059
1779.50176,0.03079
1777.44215,0.03117
1775.38254,0.03163
1773.32293,0.03211
1771.26333,0.03258
1769.20372,0.03290
1767.14411,0.03323
1765.08450,0.03364
1763.02489,0.03405
1760.96528,0.03446
1758.90567,0.03493
1756.84607,0.03559
1754.78646,0.03629
1752.72685,0.03694
1750.66724,0.03790
1748.60763,0.03891
1746.54802,0.03976
1744.48841,0.04064
1742.42881,0.04155
1740.36920,0.04256
1738.30959,0.04361
1736.24998,0.04448
1734.19037,0.04575
1732.13076,0.04751
1730.07116,0.04898
1728.01155,0.05044
1725.95194,0.05206
1723.89233,0.05393
1721.83272,0.05594
1719.77311,0.05827
1717.71350,0.06160
1715.65390,0.06581
1713.59429,0.07002
1711.53468,0.07465
1709.47507,0.08058
1707.41546,0.08905
1705.35585,0.10193
1703.29624,0.11667
1701.23664,0.13285
1699.17703,0.14884
1697.11742,0.15616
1695.05781,0.15827
1692.99820,0.16001
1690.93859,0.16279
1688.87898,0.16726
1686.81938,0.17261
1684.75977,0.18039
1682.70016,0.19005
1680.64055,0.19779
1678.58094,0.20519
1676.52133,0.21390
1674.46173,0.22421
1672.40212,0.23377
1670.34251,0.24392
1668.28290,0.25588
1666.22329,0.26604
1664.16368,0.27596
1662.10407,0.28831
1660.04447,0.30060
1657.98486,0.31118
1655.92525,0.32072
1653.86564,0.33450
1651.80603,0.35261
1649.74642,0.36303
1647.68681,0.37312
1645.62721,0.38738
1643.56760,0.39963
1641.50799,0.41026
1639.44838,0.42128
1637.38877,0.43384
1635.32916,0.45128
1633.26955,0.46750
1631.20995,0.47909
1629.15034,0.49109
1627.09073,0.50404
1625.03112,0.51547
1622.97151,0.52537
1620.91190,0.53122
1618.85230,0.53116
1616.79269,0.52545
1614.73308,0.51423
1612.67347,0.49920
1610.61386,0.47994
1608.55425,0.45674
1606.49464,0.43146
1604.43504,0.40548
1602.37543,0.37962
1600.31582,0.35542
1598.25621,0.33393
1596.19660,0.31467
1594.13699,0.29691
1592.07738,0.28076
1590.01778,0.26642
1587.95817,0.25428
1585.89856,0.24460
1583.83895,0.23724
1581.77934,0.23192
1579.71973,0.22838
1577.66012,0.22652
1575.60052,0.22659
1573.54091,0.22798
1571.48130,0.23019
1569.42169,0.23450
1567.36208,0.24002
1565.30247,0.24572
1563.24287,0.25119
1561.18326,0.25603
1559.12365,0.26371
1557.06404,0.27241
1555.00443,0.27742
1552.94482,0.28169
1550.88521,0.28605
1548.82561,0.29031
1546.76600,0.29443
1544.70639,0.29899
1542.64678,0.30425
1540.58717,0.31087
1538.52756,0.31814
1536.46795,0.32274
1534.40835,0.32727
1532.34874,0.33344
1530.28913,0.33871
1528.22952,0.34323
1526.16991,0.34815
1524.11030,0.35257
1522.05069,0.35716
1519.99109,0.36281
1517.93148,0.36819
1515.87187,0.37178
1513.81226,0.37062
1511.75265,0.36441
1509.69304,0.35536
1507.63344,0.34261
1505.57383,0.32638
1503.51422,0.31354
1501.45461,0.30226
1499.39500,0.28982
1497.33539,0.27594
1495.27578,0.26235
1493.21618,0.25115
1491.15657,0.24041
1489.09696,0.22864
1487.03735,0.21808
1484.97774,0.20945
1482.91813,0.20189
1480.85852,0.19502
1478.79892,0.18925
1476.73931,0.18453
1474.67970,0.18069
1472.62009,0.17776
1470.56048,0.17568
1468.50087,0.17426
1466.44126,0.17332
1464.38166,0.17335
1462.32205,0.17440
1460.26244,0.17622
1458.20283,0.18045
1456.14322,0.18885
1454.08361,0.19720
1452.02401,0.20424
1449.96440,0.21061
1447.90479,0.21546
1445.84518,0.21816
1443.78557,0.21885
1441.72596,0.21814
1439.66635,0.21590
1437.60675,0.21077
1435.54714,0.20227
1433.48753,0.19360
1431.42792,0.18572
1429.36831,0.17869
1427.30870,0.17366
1425.24909,0.17056
1423.18949,0.16872
1421.12988,0.16780
1419.07027,0.16777
1417.01066,0.16838
1414.95105,0.16901
1412.89144,0.16957
1410.83183,0.17011
1408.77223,0.17035
1406.71262,0.16997
1404.65301,0.16892
1402.59340,0.16750
1400.53379,0.16591
1398.47418,0.16428
1396.41458,0.16282
1394.35497,0.16156
1392.29536,0.16056
1390.23575,0.15973
1388.17614,0.15883
1386.11653,0.15774
1384.05692,0.15659
1381.99732,0.15548
1379.93771,0.15441
1377.87810,0.15347
1375.81849,0.15289
1373.75888,0.15268
1371.69927,0.15259
1369.63966,0.15228
1367.58006,0.15133
1365.52045,0.14922
1363.46084,0.14593
1361.40123,0.14229
1359.34162,0.13920
1357.28201,0.13670
1355.22240,0.13474
1353.16280,0.13343
1351.10319,0.13269
1349.04358,0.13235
1346.98397,0.13233
1344.92436,0.13257
1342.86475,0.13298
1340.80515,0.13347
1338.74554,0.13391
1336.68593,0.13398
1334.62632,0.13353
1332.56671,0.13256
1330.50710,0.13120
1328.44749,0.12968
1326.38789,0.12814
1324.32828,0.12666
1322.26867,0.12542
1320.20906,0.12460
1318.14945,0.12401
1316.08984,0.12351
1314.03023,0.12310
1311.97063,0.12272
1309.91102,0.12229
1307.85141,0.12186
1305.79180,0.12148
1303.73219,0.12107
1301.67258,0.12054
1299.61297,0.11995
1297.55337,0.11937
1295.49376,0.11887
1293.43415,0.11852
1291.37454,0.11843
1289.31493,0.11873
1287.25532,0.11925
1285.19572,0.11989
1283.13611,0.12072
1281.07650,0.12196
1279.01689,0.12382
1276.95728,0.12637
1274.89767,0.12967
1272.83806,0.13382
1270.77846,0.13862
1268.71885,0.14351
1266.65924,0.14784
1264.59963,0.15097
1262.54002,0.15270
1260.48041,0.15335
1258.42080,0.15341
1256.36120,0.15342
1254.30159,0.15365
1252.24198,0.15432
1250.18237,0.15544
1248.12276,0.15676
1246.06315,0.15822
1244.00354,0.16003
1241.94394,0.16217
1239.88433,0.16440
1237.82472,0.16668
1235.76511,0.16900
1233.70550,0.17097
1231.64589,0.17200
1229.58629,0.17166
1227.52668,0.16988
1225.46707,0.16693
1223.40746,0.16325
1221.34785,0.15921
1219.28824,0.15500
1217.22863,0.15059
1215.16903,0.14592
1213.10942,0.14111
1211.04981,0.13611
1208.99020,0.13105
1206.93059,0.12632
1204.87098,0.12193
1202.81137,0.11782
1200.75177,0.11414
1198.69216,0.11099
1196.63255,0.10830
1194.57294,0.10609
1192.51333,0.10438
1190.45372,0.10307
1188.39411,0.10206
1186.33451,0.10129
1184.27490,0.10085
1182.21529,0.10095
1180.15568,0.10175
1178.09607,0.10340
1176.03646,0.10558
1173.97686,0.10763
1171.91725,0.10917
1169.85764,0.11019
1167.79803,0.11086
1165.73842,0.11120
1163.67881,0.11111
1161.61920,0.11065
1159.55960,0.10989
1157.49999,0.10861
1155.44038,0.10674
1153.38077,0.10456
1151.32116,0.10221
1149.26155,0.09972
1147.20194,0.09739
1145.14234,0.09528
1143.08273,0.09325
1141.02312,0.09145
1138.96351,0.08997
1136.90390,0.08879
1134.84429,0.08787
1132.78468,0.08708
1130.72508,0.08627
1128.66547,0.08556
1126.60586,0.08505
1124.54625,0.08455
1122.48664,0.08399
1120.42703,0.08349
1118.36743,0.08308
1116.30782,0.08269
1114.24821,0.08238
1112.18860,0.08227
1110.12899,0.08230
1108.06938,0.08249
1106.00977,0.08280
1103.95017,0.08301
1101.89056,0.08288
1099.83095,0.08238
1097.77134,0.08182
1095.71173,0.08155
1093.65212,0.08169
1091.59251,0.08231
1089.53291,0.08347
1087.47330,0.08515
1085.41369,0.08723
1083.35408,0.08955
1081.29447,0.09195
1079.23486,0.09439
1077.17525,0.09686
1075.11565,0.09905
1073.05604,0.10071
1070.99643,0.10186
1068.93682,0.10252
1066.87721,0.10271
1064.81760,0.10252
1062.75800,0.10214
1060.69839,0.10171
1058.63878,0.10110
1056.57917,0.10013
1054.51956,0.09894
1052.45995,0.09777
1050.40034,0.09674
1048.34074,0.09597
1046.28113,0.09544
1044.22152,0.09485
1042.16191,0.09406
1040.10230,0.09312
1038.04269,0.09197
1035.98308,0.09068
1033.92348,0.08937
1031.86387,0.08805
1029.80426,0.08678
1027.74465,0.08570
1025.68504,0.08481
1023.62543,0.08410
1021.56582,0.08388
1019.50622,0.08425
1017.44661,0.08485
1015.38700,0.08534
1013.32739,0.08551
1011.26778,0.08540
1009.20817,0.08534
1007.14857,0.08569
1005.08896,0.08660
1003.02935,0.08781
1000.96974,0.08894
998.91013,0.08975
996.85052,0.09003
994.79091,0.08961
992.73131,0.08859
990.67170,0.08711
988.61209,0.08546
986.55248,0.08423
984.49287,0.08392
982.43326,0.08459
980.37365,0.08581
978.31405,0.08718
976.25444,0.08830
974.19483,0.08871
972.13522,0.08820
970.07561,0.08715
968.01600,0.08596
965.95639,0.08488
963.89679,0.08402
961.83718,0.08346
959.77757,0.08311
957.71796,0.08285
955.65835,0.08269
953.59874,0.08269
951.53914,0.08282
949.47953,0.08296
947.41992,0.08313
945.36031,0.08341
943.30070,0.08373
941.24109,0.08395
939.18148,0.08412
937.12188,0.08440
935.06227,0.08489
933.00266,0.08557
930.94305,0.08640
928.88344,0.08723
926.82383,0.08783
924.76422,0.08811
922.70462,0.08812
920.64501,0.08803
918.58540,0.08797
916.52579,0.08803
914.46618,0.08822
912.40657,0.08849
910.34696,0.08878
908.28736,0.08916
906.22775,0.08973
904.16814,0.09043
902.10853,0.09123
900.04892,0.09219
897.98931,0.09311
895.92971,0.09389
893.87010,0.09462
891.81049,0.09534
889.75088,0.09619
887.69127,0.09718
885.63166,0.09809
883.57205,0.09889
881.51245,0.09984
879.45284,0.10091
877.39323,0.10191
875.33362,0.10296
873.27401,0.10408
871.21440,0.10497
869.15479,0.10563
867.09519,0.10643
865.03558,0.10747
862.97597,0.10872
860.91636,0.11027
858.85675,0.11201
856.79714,0.11375
854.73753,0.11543
852.67793,0.11701
850.61832,0.11839
848.55871,0.11948
846.49910,0.12044
844.43949,0.12151
842.37988,0.12270
840.32028,0.12389
838.26067,0.12526
836.20106,0.12692
834.14145,0.12869
832.08184,0.13039
830.02223,0.13196
827.96262,0.13343
825.90302,0.13468
823.84341,0.13556
821.78380,0.13630
819.72419,0.13728
817.66458,0.13841
815.60497,0.13956
813.54536,0.14079
811.48576,0.14202
809.42615,0.14318
807.36654,0.14431
805.30693,0.14537
803.24732,0.14626
801.18771,0.14711
799.12810,0.14800
797.06850,0.14894
795.00889,0.15002
792.94928,0.15125
790.88967,0.15260
788.83006,0.15396
786.77045,0.15525
784.71085,0.15669
782.65124,0.15820
780.59163,0.15957
778.53202,0.16080
776.47241,0.16205
774.41280,0.16358
772.35319,0.16535
770.29359,0.16709
768.23398,0.16879
766.17437,0.17042
764.11476,0.17186
762.05515,0.17313
759.99554,0.17426
757.93593,0.17527
755.87633,0.17633
753.81672,0.17748
751.75711,0.17871
749.69750,0.18000
747.63789,0.18141
745.57828,0.18308
743.51867,0.18493
741.45907,0.18684
739.39946,0.18881
737.33985,0.19081
735.28024,0.19296
733.22063,0.19522
731.16102,0.19735
729.10142,0.19947
727.04181,0.20173
724.98220,0.20388
722.92259,0.20571
720.86298,0.20741
718.80337,0.20921
716.74376,0.21102
714.68416,0.21269
712.62455,0.21441
710.56494,0.21617
708.50533,0.21772
706.44572,0.21924
704.38611,0.22115
702.32650,0.22338
700.26690,0.22536
698.20729,0.22677
696.14768,0.22813
694.08807,0.22987
692.02846,0.23146
689.96885,0.23256
687.90924,0.23349
685.84964,0.23428
683.79003,0.23485
681.73042,0.23559
679.67081,0.23643
677.61120,0.23699
675.55159,0.23761
673.49199,0.23836
671.43238,0.23849
669.37277,0.23829
667.31316,0.23896
665.25355,0.23982
663.19394,0.24028
661.13433,0.24082
659.07473,0.24146
657.01512,0.24209
654.95551,0.24279
652.89590,0.24384
650.83629,0.24531
648.77668,0.24669
646.71707,0.24771
644.65747,0.24857
642.59786,0.24928
640.53825,0.24971
638.47864,0.24995
636.41903,0.25039
634.35942,0.25107
632.29981,0.25156
630.24021,0.25200
628.18060,0.25283
626.12099,0.25365
624.06138,0.25396
622.00177,0.25381
619.94216,0.25350
617.88256,0.25362
615.82295,0.25440
613.76334,0.25528
611.70373,0.25558
609.64412,0.25520
607.58451,0.25470
605.52490,0.25443
603.46530,0.25392
601.40569,0.25306
599.34608,0.25226
597.28647,0.25133
595.22686,0.25008
593.16725,0.24916
591.10764,0.24901
589.04804,0.24877
586.98843,0.24790
584.92882,0.24699
582.86921,0.24640
580.80960,0.24596
578.74999,0.24551
576.69039,0.24506
574.63078,0.24461
572.57117,0.24396
570.51156,0.24332
568.45195,0.24301
566.39234,0.24257
564.33273,0.24233
562.27313,0.24312
560.21352,0.24471
558.15391,0.24674
556.09430,0.24928
554.03469,0.25193
551.97508,0.25397
549.91547,0.25548
547.85587,0.25657
545.79626,0.25673
543.73665,0.25604
541.67704,0.25494
539.61743,0.25394
537.55782,0.25319
535.49821,0.25219
533.43861,0.25119
531.37900,0.25043
529.31939,0.24936
527.25978,0.24782
525.20017,0.24628
523.14056,0.24514
521.08096,0.24429
519.02135,0.24361
516.96174,0.24292
514.90213,0.24212
512.84252,0.24125
510.78291,0.24028
508.72330,0.23929
506.66370,0.23829
504.60409,0.23735
502.54448,0.23659
500.48487,0.23602
498.42526,0.23541
496.36565,0.23440
494.30604,0.23324
492.24644,0.23249
490.18683,0.23208
488.12722,0.23156
486.06761,0.23090
484.00800,0.23040
481.94839,0.22976
479.88878,0.22860
477.82918,0.22709
475.76957,0.22568
473.70996,0.22487
471.65035,0.22439
469.59074,0.22312
467.53113,0.22111
465.47153,0.21976
463.41192,0.21907
461.35231,0.21798
459.29270,0.21658
457.23309,0.21567
455.17348,0.21517
453.11387,0.21438
451.05427,0.21332
448.99466,0.21253
446.93505,0.21223
444.87544,0.21202
442.81583,0.21120
440.75622,0.20958
438.69661,0.20790
436.63701,0.20634
434.57740,0.20545
432.51779,0.20613
430.45818,0.20720
428.39857,0.20736
426.33896,0.20702
424.27935,0.20659
422.21975,0.20564
420.16014,0.20411
418.10053,0.20280
416.04092,0.20177
413.98131,0.20047
411.92170,0.19882
409.86210,0.19746
407.80249,0.19691
405.74288,0.19624
403.68327,0.19473
401.62366,0.19280
399.56405,0.19023
