3997.66060,0.09132
3995.60101,0.09095
3993.54142,0.09098
3991.48183,0.09090
3989.42224,0.09064
3987.36265,0.09077
3985.30307,0.09116
3983.24348,0.09120
3981.18389,0.09086
3979.12430,0.09039
3977.06471,0.08971
3975.00513,0.08925
3972.94554,0.08954
3970.88595,0.09008
3968.82636,0.09004
3966.76677,0.08946
3964.70719,0.08909
3962.64760,0.08880
3960.58801,0.08831
3958.52842,0.08824
3956.46883,0.08880
3954.40924,0.08946
3952.34966,0.09005
3950.29007,0.09041
3948.23048,0.09003
3946.17089,0.08931
3944.11130,0.08871
3942.05172,0.08830
3939.99213,0.08836
3937.93254,0.08841
3935.87295,0.08817
3933.81336,0.08779
3931.75377,0.08781
3929.69419,0.08862
3927.63460,0.08930
3925.57501,0.08941
3923.51542,0.08906
3921.45583,0.08816
3919.39625,0.08716
3917.33666,0.08663
3915.27707,0.08678
3913.21748,0.08743
3911.15789,0.08771
3909.09831,0.08725
3907.03872,0.08702
3904.97913,0.08774
3902.91954,0.08830
3900.85995,0.08752
3898.80036,0.08684
3896.74078,0.08685
3894.68119,0.08664
3892.62160,0.08654
3890.56201,0.08679
3888.50242,0.08656
3886.44284,0.08600
3884.38325,0.08577
3882.32366,0.08537
3880.26407,0.08508
3878.20448,0.08541
3876.14489,0.08558
3874.08531,0.08580
3872.02572,0.08612
3869.96613,0.08616
3867.90654,0.08626
3865.84695,0.08592
3863.78737,0.08544
3861.72778,0.08549
3859.66819,0.08537
3857.60860,0.08483
3855.54901,0.08402
3853.48943,0.08380
3851.42984,0.08464
3849.37025,0.08492
3847.31066,0.08447
3845.25107,0.08367
3843.19148,0.08300
3841.13190,0.08278
3839.07231,0.08261
3837.01272,0.08261
3834.95313,0.08302
3832.89354,0.08323
3830.83396,0.08334
3828.77437,0.08317
3826.71478,0.08265
3824.65519,0.08260
3822.59560,0.08295
3820.53601,0.08290
3818.47643,0.08255
3816.41684,0.08264
3814.35725,0.08309
3812.29766,0.08332
3810.23807,0.08295
3808.17849,0.08240
3806.11890,0.08253
3804.05931,0.08273
3801.99972,0.08311
3799.94013,0.08365
3797.88055,0.08309
3795.82096,0.08223
3793.76137,0.08204
3791.70178,0.08256
3789.64219,0.08303
3787.58260,0.08262
3785.52302,0.08219
3783.46343,0.08179
3781.40384,0.08073
3779.34425,0.08033
3777.28466,0.08140
3775.22508,0.08237
3773.16549,0.08216
3771.10590,0.08106
3769.04631,0.07975
3766.98672,0.07879
3764.92713,0.07865
3762.86755,0.07907
3760.80796,0.07939
3758.74837,0.07955
3756.68878,0.07950
3754.62919,0.07927
3752.56961,0.07903
3750.51002,0.07882
3748.45043,0.07818
3746.39084,0.07737
3744.33125,0.07734
3742.27167,0.07798
3740.21208,0.07810
3738.15249,0.07739
3736.09290,0.07688
3734.03331,0.07769
3731.97372,0.07807
3729.91414,0.07723
3727.85455,0.07672
3725.79496,0.07695
3723.73537,0.07704
3721.67578,0.07679
3719.61620,0.07680
3717.55661,0.07728
3715.49702,0.07742
3713.43743,0.07673
3711.37784,0.07650
3709.31825,0.07690
3707.25867,0.07652
3705.19908,0.07601
3703.13949,0.07600
3701.07990,0.07631
3699.02031,0.07629
3696.96073,0.07554
3694.90114,0.07503
3692.84155,0.07571
3690.78196,0.07663
3688.72237,0.07611
3686.66279,0.07488
3684.60320,0.07438
3682.54361,0.07459
3680.48402,0.07494
3678.42443,0.07497
3676.36484,0.07489
3674.30526,0.07514
3672.24567,0.07499
3670.18608,0.07468
3668.12649,0.07515
3666.06690,0.07530
3664.00732,0.07492
3661.94773,0.07501
3659.88814,0.07576
3657.82855,0.07610
3655.76896,0.07501
3653.70937,0.07353
3651.64979,0.07305
3649.59020,0.07353
3647.53061,0.07415
3645.47102,0.07462
3643.41143,0.07493
3641.35185,0.07487
3639.29226,0.07443
3637.23267,0.07386
3635.17308,0.07421
3633.11349,0.07548
3631.05391,0.07601
3628.99432,0.07593
3626.93473,0.07626
3624.87514,0.07626
3622.81555,0.07587
3620.75596,0.07575
3618.69638,0.07631
3616.63679,0.07708
3614.57720,0.07739
3612.51761,0.07730
3610.45802,0.07720
3608.39844,0.07722
3606.33885,0.07763
3604.27926,0.07836
3602.21967,0.07890
3600.16008,0.07926
3598.10049,0.07937
3596.04091,0.07938
3593.98132,0.07966
3591.92173,0.07977
3589.86214,0.07958
3587.80255,0.07997
3585.74297,0.08089
3583.68338,0.08142
3581.62379,0.08176
3579.56420,0.08218
3577.50461,0.08221
3575.44503,0.08186
3573.38544,0.08219
3571.32585,0.08321
3569.26626,0.08408
3567.20667,0.08456
3565.14708,0.08450
3563.08750,0.08437
3561.02791,0.08477
3558.96832,0.08545
3556.90873,0.08569
3554.84914,0.08579
3552.78956,0.08621
3550.72997,0.08643
3548.67038,0.08662
3546.61079,0.08727
3544.55120,0.08805
3542.49161,0.08860
3540.43203,0.08885
3538.37244,0.08914
3536.31285,0.08960
3534.25326,0.08981
3532.19367,0.08993
3530.13409,0.09048
3528.07450,0.09115
3526.01491,0.09143
3523.95532,0.09163
3521.89573,0.09193
3519.83615,0.09226
3517.77656,0.09277
3515.71697,0.09326
3513.65738,0.09362
3511.59779,0.09376
3509.53820,0.09383
3507.47862,0.09464
3505.41903,0.09575
3503.35944,0.09598
3501.29985,0.09578
3499.24026,0.09628
3497.18068,0.09698
3495.12109,0.09705
3493.06150,0.09704
3491.00191,0.09766
3488.94232,0.09851
3486.88273,0.09917
3484.82315,0.09965
3482.76356,0.09992
3480.70397,0.10018
3478.64438,0.10053
3476.58479,0.10055
3474.52521,0.10038
3472.46562,0.10072
3470.40603,0.10150
3468.34644,0.10218
3466.28685,0.10250
3464.22727,0.10278
3462.16768,0.10353
3460.10809,0.10429
3458.04850,0.10438
3455.98891,0.10429
3453.92932,0.10455
3451.86974,0.10515
3449.81015,0.10606
3447.75056,0.10711
3445.69097,0.10757
3443.63138,0.10727
3441.57180,0.10736
3439.51221,0.10825
3437.45262,0.10919
3435.39303,0.10992
3433.33344,0.11073
3431.27385,0.11139
3429.21427,0.11147
3427.15468,0.11146
3425.09509,0.11166
3423.03550,0.11178
3420.97591,0.11194
3418.91633,0.11248
3416.85674,0.11320
3414.79715,0.11390
3412.73756,0.11446
3410.67797,0.11502
3408.61839,0.11598
3406.55880,0.11682
3404.49921,0.11712
3402.43962,0.11737
3400.38003,0.11764
3398.32044,0.11804
3396.26086,0.11864
3394.20127,0.11917
3392.14168,0.11966
3390.08209,0.12014
3388.02250,0.12068
3385.96292,0.12120
3383.90333,0.12153
3381.84374,0.12200
3379.78415,0.12262
3377.72456,0.12315
3375.66497,0.12401
3373.60539,0.12497
3371.54580,0.12541
3369.48621,0.12589
3367.42662,0.12688
3365.36703,0.12789
3363.30745,0.12855
3361.24786,0.12929
3359.18827,0.13016
3357.12868,0.13094
3355.06909,0.13174
3353.00951,0.13234
3350.94992,0.13297
3348.89033,0.13406
3346.83074,0.13548
3344.77115,0.13698
3342.71156,0.13823
3340.65198,0.13907
3338.59239,0.13993
3336.53280,0.14108
3334.47321,0.14235
3332.41362,0.14357
3330.35404,0.14466
3328.29445,0.14573
3326.23486,0.14689
3324.17527,0.14811
3322.11568,0.14924
3320.05609,0.15052
3317.99651,0.15211
3315.93692,0.15419
3313.87733,0.15644
3311.81774,0.15796
3309.75815,0.15918
3307.69857,0.16101
3305.63898,0.16301
3303.57939,0.16451
3301.51980,0.16594
3299.46021,0.16783
3297.40063,0.16982
3295.34104,0.17176
3293.28145,0.17405
3291.22186,0.17622
3289.16227,0.17787
3287.10268,0.17970
3285.04310,0.18187
3282.98351,0.18399
3280.92392,0.18593
3278.86433,0.18772
3276.80474,0.18936
3274.74516,0.19032
3272.68557,0.19031
3270.62598,0.19019
3268.56639,0.19055
3266.50680,0.19094
3264.44721,0.19063
3262.38763,0.18945
3260.32804,0.18822
3258.26845,0.18734
3256.20886,0.18641
3254.14927,0.18536
3252.08969,0.18428
3250.03010,0.18287
3247.97051,0.18114
3245.91092,0.17966
3243.85133,0.17860
3241.79175,0.17773
3239.73216,0.17671
3237.67257,0.17551
3235.61298,0.17454
3233.55339,0.17378
3231.49380,0.17296
3229.43422,0.17187
3227.37463,0.17080
3225.31504,0.17023
3223.25545,0.16991
3221.19586,0.16930
3219.13628,0.16834
3217.07669,0.16754
3215.01710,0.16714
3212.95751,0.16646
3210.89792,0.16552
3208.83833,0.16493
3206.77875,0.16456
3204.71916,0.16414
3202.65957,0.16347
3200.59998,0.16242
3198.54039,0.16128
3196.48081,0.16033
3194.42122,0.15984
3192.36163,0.15945
3190.30204,0.15836
3188.24245,0.15695
3186.18287,0.15596
3184.12328,0.15547
3182.06369,0.15493
3180.00410,0.15399
3177.94451,0.15318
3175.88492,0.15249
3173.82534,0.15152
3171.76575,0.15025
3169.70616,0.14867
3167.64657,0.14734
3165.58698,0.14652
3163.52740,0.14576
3161.46781,0.14484
3159.40822,0.14391
3157.34863,0.14322
3155.28904,0.14274
3153.22945,0.14226
3151.16987,0.14138
3149.11028,0.13983
3147.05069,0.13811
3144.99110,0.13686
3142.93151,0.13604
3140.87193,0.13551
3138.81234,0.13517
3136.75275,0.13486
3134.69316,0.13425
3132.63357,0.13324
3130.57399,0.13223
3128.51440,0.13126
3126.45481,0.13029
3124.39522,0.12963
3122.33563,0.12935
3120.27604,0.12923
3118.21646,0.12919
3116.15687,0.12900
3114.09728,0.12846
3112.03769,0.12803
3109.97810,0.12789
3107.91852,0.12777
3105.85893,0.12757
3103.79934,0.12739
3101.73975,0.12722
3099.68016,0.12721
3097.62057,0.12743
3095.56099,0.12762
3093.50140,0.12777
3091.44181,0.12816
3089.38222,0.12874
3087.32263,0.12911
3085.26305,0.12914
3083.20346,0.12905
3081.14387,0.12908
3079.08428,0.12918
3077.02469,0.12941
3074.96511,0.12966
3072.90552,0.12969
3070.84593,0.12981
3068.78634,0.13023
3066.72675,0.13048
3064.66716,0.13020
3062.60758,0.12967
3060.54799,0.12923
3058.48840,0.12893
3056.42881,0.12872
3054.36922,0.12850
3052.30964,0.12832
3050.25005,0.12816
3048.19046,0.12772
3046.13087,0.12726
3044.07128,0.12713
3042.01169,0.12656
3039.95211,0.12520
3037.89252,0.12397
3035.83293,0.12344
3033.77334,0.12311
3031.71375,0.12255
3029.65417,0.12178
3027.59458,0.12104
3025.53499,0.12037
3023.47540,0.11939
3021.41581,0.11825
3019.35623,0.11744
3017.29664,0.11681
3015.23705,0.11620
3013.17746,0.11561
3011.11787,0.11484
3009.05828,0.11411
3006.99870,0.11353
3004.93911,0.11310
3002.87952,0.11276
3000.81993,0.11230
2998.76034,0.11208
2996.70076,0.11238
2994.64117,0.11279
2992.58158,0.11326
2990.52199,0.11405
2988.46240,0.11480
2986.40281,0.11507
2984.34323,0.11544
2982.28364,0.11635
2980.22405,0.11718
2978.16446,0.11775
2976.10487,0.11858
2974.04529,0.11973
2971.98570,0.12100
2969.92611,0.12231
2967.86652,0.12330
2965.80693,0.12374
2963.74735,0.12393
2961.68776,0.12394
2959.62817,0.12391
2957.56858,0.12418
2955.50899,0.12449
2953.44940,0.12426
2951.38982,0.12364
2949.33023,0.12326
2947.27064,0.12336
2945.21105,0.12363
2943.15146,0.12406
2941.09188,0.12487
2939.03229,0.12602
2936.97270,0.12790
2934.91311,0.13055
2932.85352,0.13325
2930.79393,0.13566
2928.73435,0.13783
2926.67476,0.14002
2924.61517,0.14219
2922.55558,0.14385
2920.49599,0.14510
2918.43641,0.14571
2916.37682,0.14437
2914.31723,0.14091
2912.25764,0.13654
2910.19805,0.13252
2908.13847,0.12954
2906.07888,0.12760
2904.01929,0.12624
2901.95970,0.12492
2899.90011,0.12343
2897.84052,0.12212
2895.78094,0.12131
2893.72135,0.12057
2891.66176,0.11957
2889.60217,0.11863
2887.54258,0.11780
2885.48300,0.11699
2883.42341,0.11652
2881.36382,0.11660
2879.30423,0.11698
2877.24464,0.11730
2875.18505,0.11747
2873.12547,0.11744
2871.06588,0.11724
2869.00629,0.11689
2866.94670,0.11632
2864.88711,0.11580
2862.82753,0.11556
2860.76794,0.11575
2858.70835,0.11659
2856.64876,0.11794
2854.58917,0.11957
2852.52959,0.12147
2850.47000,0.12292
2848.41041,0.12229
2846.35082,0.11921
2844.29123,0.11536
2842.23164,0.11214
2840.17206,0.10982
2838.11247,0.10833
2836.05288,0.10744
2833.99329,0.10685
2831.93370,0.10631
2829.87412,0.10555
2827.81453,0.10447
2825.75494,0.10346
2823.69535,0.10286
2821.63576,0.10257
2819.57617,0.10227
2817.51659,0.10196
2815.45700,0.10177
2813.39741,0.10170
2811.33782,0.10157
2809.27823,0.10125
2807.21865,0.10090
2805.15906,0.10066
2803.09947,0.10029
2801.03988,0.09979
2798.98029,0.09938
2796.92071,0.09904
2794.86112,0.09875
2792.80153,0.09859
2790.74194,0.09847
2788.68235,0.09815
2786.62276,0.09774
2784.56318,0.09748
2782.50359,0.09730
2780.44400,0.09715
2778.38441,0.09702
2776.32482,0.09680
2774.26524,0.09652
2772.20565,0.09636
2770.14606,0.09618
2768.08647,0.09583
2766.02688,0.09529
2763.96729,0.09472
2761.90771,0.09455
2759.84812,0.09458
2757.78853,0.09421
2755.72894,0.09364
2753.66935,0.09331
2751.60977,0.09335
2749.55018,0.09344
2747.49059,0.09312
2745.43100,0.09261
2743.37141,0.09250
2741.31183,0.09258
2739.25224,0.09226
2737.19265,0.09174
2735.13306,0.09149
2733.07347,0.09135
2731.01388,0.09106
2728.95430,0.09082
2726.89471,0.09070
2724.83512,0.09041
2722.77553,0.09002
2720.71594,0.08979
2718.65636,0.08973
2716.59677,0.08968
2714.53718,0.08944
2712.47759,0.08907
2710.41800,0.08888
2708.35841,0.08875
2706.29883,0.08826
2704.23924,0.08768
2702.17965,0.08757
2700.12006,0.08767
2698.06047,0.08751
2696.00089,0.08726
2693.94130,0.08713
2691.88171,0.08698
2689.82212,0.08687
2687.76253,0.08687
2685.70295,0.08681
2683.64336,0.08664
2681.58377,0.08648
2679.52418,0.08630
2677.46459,0.08590
2675.40500,0.08543
2673.34542,0.08523
2671.28583,0.08525
2669.22624,0.08528
2667.16665,0.08532
2665.10706,0.08535
2663.04748,0.08538
2660.98789,0.08525
2658.92830,0.08484
2656.86871,0.08451
2654.80912,0.08442
2652.74953,0.08448
2650.68995,0.08441
2648.63036,0.08407
2646.57077,0.08370
2644.51118,0.08330
2642.45159,0.08274
2640.39201,0.08240
2638.33242,0.08245
2636.27283,0.08250
2634.21324,0.08231
2632.15365,0.08187
2630.09407,0.08131
2628.03448,0.08089
2625.97489,0.08065
2623.91530,0.08058
2621.85571,0.08038
2619.79612,0.07982
2617.73654,0.07938
2615.67695,0.07929
2613.61736,0.07913
2611.55777,0.07883
2609.49818,0.07851
2607.43860,0.07847
2605.37901,0.07877
2603.31942,0.07875
2601.25983,0.07824
2599.20024,0.07767
2597.14065,0.07731
2595.08107,0.07710
2593.02148,0.07685
2590.96189,0.07661
2588.90230,0.07653
2586.84271,0.07650
2584.78313,0.07627
2582.72354,0.07593
2580.66395,0.07579
2578.60436,0.07578
2576.54477,0.07569
2574.48519,0.07554
2572.42560,0.07538
2570.36601,0.07516
2568.30642,0.07484
2566.24683,0.07441
2564.18724,0.07410
2562.12766,0.07398
2560.06807,0.07369
2558.00848,0.07340
2555.94889,0.07346
2553.88930,0.07361
2551.82972,0.07360
2549.77013,0.07328
2547.71054,0.07271
2545.65095,0.07237
2543.59136,0.07241
2541.53177,0.07249
2539.47219,0.07253
2537.41260,0.07234
2535.35301,0.07174
2533.29342,0.07141
2531.23383,0.07167
2529.17425,0.07171
2527.11466,0.07144
2525.05507,0.07133
2522.99548,0.07145
2520.93589,0.07170
2518.87631,0.07157
2516.81672,0.07092
2514.75713,0.07058
2512.69754,0.07073
2510.63795,0.07074
2508.57836,0.07050
2506.51878,0.07023
2504.45919,0.06998
2502.39960,0.06974
2500.34001,0.06975
2498.28042,0.06985
2496.22084,0.06961
2494.16125,0.06944
2492.10166,0.06936
2490.04207,0.06900
2487.98248,0.06882
2485.92289,0.06886
2483.86331,0.06864
2481.80372,0.06835
2479.74413,0.06827
2477.68454,0.06829
2475.62495,0.06846
2473.56537,0.06852
2471.50578,0.06839
2469.44619,0.06831
2467.38660,0.06798
2465.32701,0.06755
2463.26743,0.06751
2461.20784,0.06756
2459.14825,0.06756
2457.08866,0.06767
2455.02907,0.06768
2452.96948,0.06750
2450.90990,0.06741
2448.85031,0.06722
2446.79072,0.06671
2444.73113,0.06637
2442.67154,0.06614
2440.61196,0.06583
2438.55237,0.06560
2436.49278,0.06532
2434.43319,0.06538
2432.37360,0.06588
2430.31401,0.06614
2428.25443,0.06596
2426.19484,0.06556
2424.13525,0.06523
2422.07566,0.06530
2420.01607,0.06553
2417.95649,0.06535
2415.89690,0.06488
2413.83731,0.06455
2411.77772,0.06446
2409.71813,0.06454
2407.65855,0.06464
2405.59896,0.06466
2403.53937,0.06452
2401.47978,0.06423
2399.42019,0.06415
2397.36060,0.06445
2395.30102,0.06478
2393.24143,0.06484
2391.18184,0.06466
2389.12225,0.06448
2387.06266,0.06433
2385.00308,0.06395
2382.94349,0.06374
2380.88390,0.06387
2378.82431,0.06387
2376.76472,0.06382
2374.70513,0.06403
2372.64555,0.06430
2370.58596,0.06408
2368.52637,0.06323
2366.46678,0.06238
2364.40719,0.06205
2362.34761,0.06236
2360.28802,0.06312
2358.22843,0.06380
2356.16884,0.06397
2354.10925,0.06414
2352.04967,0.06428
2349.99008,0.06401
2347.93049,0.06358
2345.87090,0.06316
2343.81131,0.06308
2341.75172,0.06356
2339.69214,0.06402
2337.63255,0.06388
2335.57296,0.06343
2333.51337,0.06314
2331.45378,0.06290
2329.39420,0.06291
2327.33461,0.06363
2325.27502,0.06457
2323.21543,0.06459
2321.15584,0.06381
2319.09625,0.06316
2317.03667,0.06274
2314.97708,0.06218
2312.91749,0.06157
2310.85790,0.06127
2308.79831,0.06115
2306.73873,0.06093
2304.67914,0.06063
2302.61955,0.06043
2300.55996,0.06041
2298.50037,0.06023
2296.44079,0.05975
2294.38120,0.05945
2292.32161,0.05938
2290.26202,0.05933
2288.20243,0.05916
2286.14284,0.05868
2284.08326,0.05846
2282.02367,0.05842
2279.96408,0.05775
2277.90449,0.05710
2275.84490,0.05732
2273.78532,0.05761
2271.72573,0.05708
2269.66614,0.05639
2267.60655,0.05615
2265.54696,0.05581
2263.48737,0.05528
2261.42779,0.05499
2259.36820,0.05469
2257.30861,0.05433
2255.24902,0.05420
2253.18943,0.05421
2251.12985,0.05373
2249.07026,0.05294
2247.01067,0.05268
2244.95108,0.05286
2242.89149,0.05303
2240.83191,0.05265
2238.77232,0.05182
2236.71273,0.05121
2234.65314,0.05098
2232.59355,0.05102
2230.53396,0.05086
2228.47438,0.05037
2226.41479,0.05044
2224.35520,0.05116
2222.29561,0.05140
2220.23602,0.05089
2218.17644,0.05034
2216.11685,0.05017
2214.05726,0.05013
2211.99767,0.05015
2209.93808,0.04991
2207.87849,0.04917
2205.81891,0.04922
2203.75932,0.05025
2201.69973,0.05016
2199.64014,0.04821
2197.58055,0.04679
2195.52097,0.04714
2193.46138,0.04713
2191.40179,0.04630
2189.34220,0.04637
2187.28261,0.04685
2185.22303,0.04630
2183.16344,0.04522
2181.10385,0.04424
2179.04426,0.04367
2176.98467,0.04341
2174.92508,0.04334
2172.86550,0.04373
2170.80591,0.04476
2168.74632,0.04579
2166.68673,0.04560
2164.62714,0.04457
2162.56756,0.04326
2160.50797,0.04144
2158.44838,0.04005
2156.38879,0.04022
2154.32920,0.04093
2152.26961,0.04149
2150.21003,0.04262
2148.15044,0.04387
2146.09085,0.04422
2144.03126,0.04388
2141.97167,0.04328
2139.91209,0.04300
2137.85250,0.04379
2135.79291,0.04464
2133.73332,0.04440
2131.67373,0.04457
2129.61415,0.04586
2127.55456,0.04689
2125.49497,0.04697
2123.43538,0.04677
2121.37579,0.04694
2119.31620,0.04718
2117.25662,0.04721
2115.19703,0.04737
2113.13744,0.04791
2111.07785,0.04811
2109.01826,0.04743
2106.95868,0.04688
2104.89909,0.04682
2102.83950,0.04671
2100.77991,0.04653
2098.72032,0.04651
2096.66073,0.04643
2094.60115,0.04603
2092.54156,0.04580
2090.48197,0.04567
2088.42238,0.04535
2086.36279,0.04490
2084.30321,0.04418
2082.24362,0.04365
2080.18403,0.04397
2078.12444,0.04455
2076.06485,0.04481
2074.00527,0.04492
2071.94568,0.04456
2069.88609,0.04385
2067.82650,0.04355
2065.76691,0.04360
2063.70732,0.04358
2061.64774,0.04331
2059.58815,0.04298
2057.52856,0.04315
2055.46897,0.04309
2053.40938,0.04206
2051.34980,0.04112
2049.29021,0.04066
2047.23062,0.03994
2045.17103,0.03922
2043.11144,0.03915
2041.05185,0.03918
2038.99227,0.03831
2036.93268,0.03741
2034.87309,0.03735
2032.81350,0.03667
2030.75391,0.03498
2028.69433,0.03398
2026.63474,0.03388
2024.57515,0.03415
2022.51556,0.03527
2020.45597,0.03680
2018.39639,0.03769
2016.33680,0.03742
2014.27721,0.03646
2012.21762,0.03630
2010.15803,0.03691
2008.09844,0.03722
2006.03886,0.03744
2003.97927,0.03755
2001.91968,0.03735
1999.86009,0.03717
1997.80050,0.03723
1995.74092,0.03775
1993.68133,0.03803
1991.62174,0.03754
1989.56215,0.03723
1987.50256,0.03730
1985.44297,0.03697
1983.38339,0.03675
1981.32380,0.03727
1979.26421,0.03691
1977.20462,0.03450
1975.14503,0.03270
1973.08545,0.03317
1971.02586,0.03413
1968.96627,0.03381
1966.90668,0.03276
1964.84709,0.03289
1962.78751,0.03392
1960.72792,0.03431
1958.66833,0.03407
1956.60874,0.03416
1954.54915,0.03468
1952.48956,0.03497
1950.42998,0.03555
1948.37039,0.03660
1946.31080,0.03707
1944.25121,0.03658
1942.19162,0.03566
1940.13204,0.03521
1938.07245,0.03540
1936.01286,0.03559
1933.95327,0.03560
1931.89368,0.03571
1929.83409,0.03579
1927.77451,0.03574
1925.71492,0.03571
1923.65533,0.03560
1921.59574,0.03531
1919.53615,0.03525
1917.47657,0.03569
1915.41698,0.03602
1913.35739,0.03573
1911.29780,0.03549
1909.23821,0.03569
1907.17863,0.03577
1905.11904,0.03566
1903.05945,0.03578
1900.99986,0.03606
1898.94027,0.03615
1896.88068,0.03590
1894.82110,0.03548
1892.76151,0.03540
1890.70192,0.03556
1888.64233,0.03523
1886.58274,0.03459
1884.52316,0.03418
1882.46357,0.03396
1880.40398,0.03409
1878.34439,0.03470
1876.28480,0.03504
1874.22521,0.03461
1872.16563,0.03421
1870.10604,0.03440
1868.04645,0.03467
1865.98686,0.03435
1863.92727,0.03402
1861.86769,0.03411
1859.80810,0.03399
1857.74851,0.03355
1855.68892,0.03324
1853.62933,0.03298
1851.56975,0.03281
1849.51016,0.03295
1847.45057,0.03300
1845.39098,0.03286
1843.33139,0.03280
1841.27180,0.03252
1839.21222,0.03215
1837.15263,0.03217
1835.09304,0.03226
1833.03345,0.03206
1830.97386,0.03180
1828.91428,0.03172
1826.85469,0.03165
1824.79510,0.03139
1822.73551,0.03114
1820.67592,0.03097
1818.61633,0.03087
1816.55675,0.03088
1814.49716,0.03076
1812.43757,0.03029
1810.37798,0.02988
1808.31839,0.02982
1806.25881,0.02985
1804.19922,0.02980
1802.13963,0.02974
1800.08004,0.02959
1798.02045,0.02928
1795.96087,0.02899
1793.90128,0.02876
1791.84169,0.02861
1789.78210,0.02850
1787.72251,0.02841
1785.66292,0.02827
1783.60334,0.02809
1781.54375,0.02794
1779.48416,0.02775
1777.42457,0.02749
1775.36498,0.02720
1773.30540,0.02701
1771.24581,0.02692
1769.18622,0.02679
1767.12663,0.02661
1765.06704,0.02640
1763.00745,0.02608
1760.94787,0.02579
1758.88828,0.02578
1756.82869,0.02582
1754.76910,0.02570
1752.70951,0.02551
1750.64993,0.02535
1748.59034,0.02513
1746.53075,0.02500
1744.47116,0.02499
1742.41157,0.02505
1740.35199,0.02505
1738.29240,0.02488
1736.23281,0.02457
1734.17322,0.02433
1732.11363,0.02420
1730.05404,0.02398
1727.99446,0.02381
1725.93487,0.02369
1723.87528,0.02363
1721.81569,0.02367
1719.75610,0.02381
1717.69652,0.02410
1715.63693,0.02487
1713.57734,0.02595
1711.51775,0.02730
1709.45816,0.02915
1707.39857,0.03174
1705.33899,0.03541
1703.27940,0.03935
1701.21981,0.04392
1699.16022,0.04946
1697.10063,0.05402
1695.04105,0.05813
1692.98146,0.06163
1690.92187,0.06477
1688.86228,0.06829
1686.80269,0.07168
1684.74311,0.07616
1682.68352,0.08180
1680.62393,0.08621
1678.56434,0.09011
1676.50475,0.09454
1674.44516,0.09973
1672.38558,0.10448
1670.32599,0.10943
1668.26640,0.11529
1666.20681,0.12024
1664.14722,0.12489
1662.08764,0.13033
1660.02805,0.13542
1657.96846,0.13954
1655.90887,0.14295
1653.84928,0.14733
1651.78969,0.15258
1649.73011,0.15499
1647.67052,0.15691
1645.61093,0.15979
1643.55134,0.16199
1641.49175,0.16374
1639.43217,0.16571
1637.37258,0.16822
1635.31299,0.17217
1633.25340,0.17599
1631.19381,0.17863
1629.13423,0.18135
1627.07464,0.18420
1625.01505,0.18601
1622.95546,0.18615
1620.89587,0.18423
1618.83628,0.18046
1616.77670,0.17500
1614.71711,0.16924
1612.65752,0.16402
1610.59793,0.15841
1608.53834,0.15225
1606.47876,0.14604
1604.41917,0.13997
1602.35958,0.13401
1600.29999,0.12843
1598.24040,0.12344
1596.18081,0.11895
1594.12123,0.11470
1592.06164,0.11062
1590.00205,0.10682
1587.94246,0.10352
1585.88287,0.10081
1583.82329,0.09866
1581.76370,0.09694
1579.70411,0.09561
1577.64452,0.09485
1575.58493,0.09489
1573.52535,0.09538
1571.46576,0.09606
1569.40617,0.09750
1567.34658,0.09956
1565.28699,0.10196
1563.22740,0.10437
1561.16782,0.10670
1559.10823,0.11096
1557.04864,0.11614
1554.98905,0.11964
1552.92946,0.12306
1550.86988,0.12674
1548.81029,0.13056
1546.75070,0.13407
1544.69111,0.13724
1542.63152,0.14018
1540.57193,0.14351
1538.51235,0.14732
1536.45276,0.14979
1534.39317,0.15201
1532.33358,0.15479
1530.27399,0.15702
1528.21441,0.15881
1526.15482,0.16064
1524.09523,0.16223
1522.03564,0.16413
1519.97605,0.16659
1517.91647,0.16879
1515.85688,0.17051
1513.79729,0.17100
1511.73770,0.16998
1509.67811,0.16798
1507.61852,0.16487
1505.55894,0.16046
1503.49935,0.15618
1501.43976,0.15194
1499.38017,0.14723
1497.32058,0.14199
1495.26100,0.13654
1493.20141,0.13155
1491.14182,0.12658
1489.08223,0.12117
1487.02264,0.11624
1484.96305,0.11220
1482.90347,0.10870
1480.84388,0.10540
1478.78429,0.10266
1476.72470,0.10087
1474.66511,0.09995
1472.60553,0.09961
1470.54594,0.09941
1468.48635,0.09920
1466.42676,0.09921
1464.36717,0.09975
1462.30759,0.10038
1460.24800,0.10086
1458.18841,0.10239
1456.12882,0.10559
1454.06923,0.10792
1452.00964,0.10914
1449.95006,0.11025
1447.89047,0.11153
1445.83088,0.11249
1443.77129,0.11257
1441.71170,0.11188
1439.65212,0.11060
1437.59253,0.10886
1435.53294,0.10701
1433.47335,0.10532
1431.41376,0.10363
1429.35417,0.10211
1427.29459,0.10103
1425.23500,0.10040
1423.17541,0.10009
1421.11582,0.10002
1419.05623,0.10051
1416.99665,0.10140
1414.93706,0.10213
1412.87747,0.10270
1410.81788,0.10316
1408.75829,0.10349
1406.69871,0.10376
1404.63912,0.10382
1402.57953,0.10337
1400.51994,0.10265
1398.46035,0.10195
1396.40076,0.10124
1394.34118,0.10064
1392.28159,0.10025
1390.22200,0.09992
1388.16241,0.09962
1386.10282,0.09931
1384.04324,0.09878
1381.98365,0.09808
1379.92406,0.09742
1377.86447,0.09694
1375.80488,0.09670
1373.74529,0.09670
1371.68571,0.09673
1369.62612,0.09637
1367.56653,0.09535
1365.50694,0.09392
1363.44735,0.09245
1361.38777,0.09108
1359.32818,0.08981
1357.26859,0.08874
1355.20900,0.08799
1353.14941,0.08740
1351.08983,0.08687
1349.03024,0.08658
1346.97065,0.08653
1344.91106,0.08657
1342.85147,0.08678
1340.79188,0.08715
1338.73230,0.08762
1336.67271,0.08799
1334.61312,0.08806
1332.55353,0.08797
1330.49394,0.08792
1328.43436,0.08773
1326.37477,0.08725
1324.31518,0.08671
1322.25559,0.08629
1320.19600,0.08587
1318.13641,0.08549
1316.07683,0.08520
1314.01724,0.08492
1311.95765,0.08470
1309.89806,0.08447
1307.83847,0.08413
1305.77889,0.08377
1303.71930,0.08339
1301.65971,0.08299
1299.60012,0.08257
1297.54053,0.08210
1295.48095,0.08169
1293.42136,0.08144
1291.36177,0.08134
1289.30218,0.08132
1287.24259,0.08130
1285.18300,0.08128
1283.12342,0.08128
1281.06383,0.08136
1279.00424,0.08149
1276.94465,0.08163
1274.88506,0.08179
1272.82548,0.08209
1270.76589,0.08259
1268.70630,0.08317
1266.64671,0.08367
1264.58712,0.08407
1262.52753,0.08450
1260.46795,0.08498
1258.40836,0.08551
1256.34877,0.08616
1254.28918,0.08696
1252.22959,0.08791
1250.17001,0.08904
1248.11042,0.09027
1246.05083,0.09164
1243.99124,0.09316
1241.93165,0.09458
1239.87207,0.09589
1237.81248,0.09708
1235.75289,0.09793
1233.69330,0.09832
1231.63371,0.09841
1229.57412,0.09831
1227.51454,0.09804
1225.45495,0.09766
1223.39536,0.09715
1221.33577,0.09635
1219.27618,0.09529
1217.21660,0.09407
1215.15701,0.09264
1213.09742,0.09105
1211.03783,0.08938
1208.97824,0.08780
1206.91865,0.08636
1204.85907,0.08489
1202.79948,0.08338
1200.73989,0.08201
1198.68030,0.08080
1196.62071,0.07966
1194.56113,0.07869
1192.50154,0.07786
1190.44195,0.07706
1188.38236,0.07639
1186.32277,0.07590
1184.26319,0.07548
1182.20360,0.07518
1180.14401,0.07513
1178.08442,0.07544
1176.02483,0.07609
1173.96524,0.07695
1171.90566,0.07783
1169.84607,0.07849
1167.78648,0.07879
1165.72689,0.07884
1163.66730,0.07863
1161.60772,0.07822
1159.54813,0.07770
1157.48854,0.07701
1155.42895,0.07619
1153.36936,0.07534
1151.30977,0.07449
1149.25019,0.07379
1147.19060,0.07332
1145.13101,0.07304
1143.07142,0.07292
1141.01183,0.07286
1138.95225,0.07284
1136.89266,0.07282
1134.83307,0.07269
1132.77348,0.07235
1130.71389,0.07194
1128.65431,0.07158
1126.59472,0.07120
1124.53513,0.07070
1122.47554,0.07011
1120.41595,0.06957
1118.35636,0.06904
1116.29678,0.06850
1114.23719,0.06804
1112.17760,0.06769
1110.11801,0.06739
1108.05842,0.06716
1105.99884,0.06705
1103.93925,0.06690
1101.87966,0.06664
1099.82007,0.06637
1097.76048,0.06613
1095.70089,0.06585
1093.64131,0.06552
1091.58172,0.06525
1089.52213,0.06524
1087.46254,0.06548
1085.40295,0.06578
1083.34337,0.06604
1081.28378,0.06629
1079.22419,0.06648
1077.16460,0.06658
1075.10501,0.06655
1073.04543,0.06643
1070.98584,0.06621
1068.92625,0.06576
1066.86666,0.06526
1064.80707,0.06508
1062.74748,0.06523
1060.68790,0.06541
1058.62831,0.06571
1056.56872,0.06635
1054.50913,0.06721
1052.44954,0.06802
1050.38996,0.06857
1048.33037,0.06885
1046.27078,0.06895
1044.21119,0.06892
1042.15160,0.06871
1040.09201,0.06834
1038.03243,0.06782
1035.97284,0.06718
1033.91325,0.06664
1031.85366,0.06628
1029.79407,0.06598
1027.73449,0.06560
1025.67490,0.06506
1023.61531,0.06431
1021.55572,0.06335
1019.49613,0.06239
1017.43655,0.06150
1015.37696,0.06064
1013.31737,0.05981
1011.25778,0.05897
1009.19819,0.05805
1007.13860,0.05706
1005.07902,0.05607
1003.01943,0.05518
1000.95984,0.05446
998.90025,0.05394
996.84066,0.05347
994.78108,0.05300
992.72149,0.05259
990.66190,0.05212
988.60231,0.05149
986.54272,0.05077
984.48313,0.05004
982.42355,0.04935
980.36396,0.04876
978.30437,0.04840
976.24478,0.04834
974.18519,0.04854
972.12561,0.04894
970.06602,0.04954
968.00643,0.05032
965.94684,0.05101
963.88725,0.05120
961.82767,0.05074
959.76808,0.04983
957.70849,0.04881
955.64890,0.04792
953.58931,0.04718
951.52972,0.04657
949.47014,0.04617
947.41055,0.04587
945.35096,0.04552
943.29137,0.04519
941.23178,0.04498
939.17220,0.04486
937.11261,0.04482
935.05302,0.04488
932.99343,0.04496
930.93384,0.04503
928.87425,0.04517
926.81467,0.04534
924.75508,0.04538
922.69549,0.04523
920.63590,0.04496
918.57631,0.04460
916.51673,0.04411
914.45714,0.04346
912.39755,0.04279
910.33796,0.04221
908.27837,0.04178
906.21879,0.04142
904.15920,0.04102
902.09961,0.04065
900.04002,0.04030
897.98043,0.03990
895.92084,0.03962
893.86126,0.03951
891.80167,0.03939
889.74208,0.03918
887.68249,0.03892
885.62290,0.03868
883.56332,0.03858
881.50373,0.03857
879.44414,0.03846
877.38455,0.03831
875.32496,0.03817
873.26537,0.03790
871.20579,0.03762
869.14620,0.03742
867.08661,0.03724
865.02702,0.03716
862.96743,0.03712
860.90785,0.03700
858.84826,0.03692
856.78867,0.03691
854.72908,0.03692
852.66949,0.03702
850.60991,0.03714
848.55032,0.03722
846.49073,0.03726
844.43114,0.03730
842.37155,0.03747
840.31196,0.03783
838.25238,0.03806
836.19279,0.03813
834.13320,0.03825
832.07361,0.03833
830.01402,0.03829
827.95444,0.03821
825.89485,0.03793
823.83526,0.03745
821.77567,0.03703
819.71608,0.03685
817.65649,0.03686
815.59691,0.03695
813.53732,0.03703
811.47773,0.03709
809.41814,0.03710
807.35855,0.03711
805.29897,0.03723
803.23938,0.03745
801.17979,0.03757
799.12020,0.03749
797.06061,0.03733
795.00103,0.03722
792.94144,0.03735
790.88185,0.03763
788.82226,0.03778
786.76267,0.03794
784.70308,0.03829
782.64350,0.03857
780.58391,0.03879
778.52432,0.03907
776.46473,0.03918
774.40514,0.03925
772.34556,0.03953
770.28597,0.03983
768.22638,0.04001
766.16679,0.04006
764.10720,0.04011
762.04761,0.04021
759.98803,0.04026
757.92844,0.04028
755.86885,0.04041
753.80926,0.04068
751.74967,0.04089
749.69009,0.04102
747.63050,0.04127
745.57091,0.04173
743.51132,0.04215
741.45173,0.04237
739.39215,0.04250
737.33256,0.04263
735.27297,0.04283
733.21338,0.04311
731.15379,0.04338
729.09420,0.04371
727.03462,0.04421
724.97503,0.04486
722.91544,0.04563
720.85585,0.04656
718.79626,0.04759
716.73668,0.04860
714.67709,0.04947
712.61750,0.05036
710.55791,0.05139
708.49832,0.05246
706.43873,0.05347
704.37915,0.05439
702.31956,0.05520
700.25997,0.05588
698.20038,0.05641
696.14079,0.05672
694.08121,0.05679
692.02162,0.05674
689.96203,0.05669
687.90244,0.05671
685.84285,0.05681
683.78327,0.05698
681.72368,0.05721
679.66409,0.05737
677.60450,0.05739
675.54491,0.05734
673.48532,0.05729
671.42574,0.05734
669.36615,0.05755
667.30656,0.05771
665.24697,0.05781
663.18738,0.05786
661.12780,0.05777
659.06821,0.05767
657.00862,0.05769
654.94903,0.05769
652.88944,0.05765
650.82985,0.05757
648.77027,0.05747
646.71068,0.05749
644.65109,0.05755
642.59150,0.05759
640.53191,0.05770
638.47233,0.05797
636.41274,0.05828
634.35315,0.05853
632.29356,0.05873
630.23397,0.05898
628.17439,0.05936
626.11480,0.05982
624.05521,0.06033
621.99562,0.06081
619.93603,0.06107
617.87644,0.06107
615.81686,0.06095
613.75727,0.06104
611.69768,0.06122
609.63809,0.06109
607.57850,0.06076
605.51892,0.06055
603.45933,0.06036
601.39974,0.06015
599.34015,0.06003
597.28056,0.05998
595.22097,0.05983
593.16139,0.05976
591.10180,0.05976
589.04221,0.05963
586.98262,0.05962
584.92303,0.05989
582.86345,0.06020
580.80386,0.06038
578.74427,0.06048
576.68468,0.06062
574.62509,0.06075
572.56551,0.06087
570.50592,0.06112
568.44633,0.06132
566.38674,0.06130
564.32715,0.06126
562.26756,0.06146
560.20798,0.06176
558.14839,0.06193
556.08880,0.06210
554.02921,0.06241
551.96962,0.06253
549.91004,0.06238
547.85045,0.06244
545.79086,0.06274
543.73127,0.06285
541.67168,0.06268
539.61209,0.06236
537.55251,0.06205
535.49292,0.06188
533.43333,0.06171
531.37374,0.06140
529.31415,0.06110
527.25457,0.06085
525.19498,0.06051
523.13539,0.06029
521.07580,0.06036
519.01621,0.06032
516.95663,0.05986
514.89704,0.05914
512.83745,0.05863
510.77786,0.05858
508.71827,0.05860
506.65868,0.05836
504.59910,0.05799
502.53951,0.05756
500.47992,0.05706
498.42033,0.05669
496.36074,0.05647
494.30116,0.05620
492.24157,0.05604
490.18198,0.05607
488.12239,0.05576
486.06280,0.05494
484.00321,0.05412
481.94363,0.05369
479.88404,0.05350
477.82445,0.05332
475.76486,0.05308
473.70527,0.05285
471.64569,0.05272
469.58610,0.05262
467.52651,0.05230
465.46692,0.05177
463.40733,0.05119
461.34775,0.05068
459.28816,0.05052
457.22857,0.05072
455.16898,0.05088
453.10939,0.05079
451.04980,0.05070
448.99022,0.05098
446.93063,0.05137
444.87104,0.05173
442.81145,0.05228
440.75186,0.05237
438.69228,0.05161
436.63269,0.05073
434.57310,0.05015
432.51351,0.04950
430.45392,0.04867
428.39433,0.04791
426.33475,0.04741
424.27516,0.04703
422.21557,0.04645
420.15598,0.04585
418.09639,0.04550
416.03681,0.04535
413.97722,0.04506
411.91763,0.04434
409.85804,0.04375
407.79845,0.04373
405.73887,0.04364
403.67928,0.04323
401.61969,0.04294
399.56010,0.04278
