3997.65486	0.00893
3995.59527	0.00868
3993.53569	0.00838
3991.47610	0.00835
3989.41652	0.00887
3987.35693	0.00920
3985.29735	0.00900
3983.23776	0.00893
3981.17817	0.00924
3979.11859	0.00951
3977.05900	0.00924
3974.99942	0.00866
3972.93983	0.00836
3970.88025	0.00826
3968.82066	0.00824
3966.76108	0.00834
3964.70149	0.00838
3962.64191	0.00815
3960.58232	0.00766
3958.52274	0.00736
3956.46315	0.00763
3954.40357	0.00832
3952.34398	0.00903
3950.28440	0.00939
3948.22481	0.00957
3946.16523	0.00981
3944.10564	0.00974
3942.04606	0.00932
3939.98647	0.00887
3937.92689	0.00859
3935.86730	0.00863
3933.80772	0.00886
3931.74813	0.00916
3929.68855	0.00936
3927.62896	0.00903
3925.56937	0.00838
3923.50979	0.00834
3921.45020	0.00884
3919.39062	0.00879
3917.33103	0.00796
3915.27145	0.00716
3913.21186	0.00694
3911.15228	0.00736
3909.09269	0.00802
3907.03311	0.00851
3904.97352	0.00876
3902.91394	0.00865
3900.85435	0.00823
3898.79477	0.00784
3896.73518	0.00782
3894.67560	0.00833
3892.61601	0.00898
3890.55643	0.00899
3888.49684	0.00812
3886.43726	0.00735
3884.37767	0.00752
3882.31809	0.00774
3880.25850	0.00717
3878.19892	0.00667
3876.13933	0.00683
3874.07974	0.00701
3872.02016	0.00673
3869.96057	0.00641
3867.90099	0.00636
3865.84140	0.00650
3863.78182	0.00690
3861.72223	0.00729
3859.66265	0.00721
3857.60306	0.00702
3855.54348	0.00715
3853.48389	0.00725
3851.42431	0.00715
3849.36472	0.00740
3847.30514	0.00806
3845.24555	0.00861
3843.18597	0.00867
3841.12638	0.00833
3839.06680	0.00797
3837.00721	0.00804
3834.94763	0.00840
3832.88804	0.00848
3830.82846	0.00809
3828.76887	0.00747
3826.70929	0.00693
3824.64970	0.00675
3822.59012	0.00694
3820.53053	0.00720
3818.47094	0.00713
3816.41136	0.00644
3814.35177	0.00570
3812.29219	0.00577
3810.23260	0.00645
3808.17302	0.00717
3806.11343	0.00759
3804.05385	0.00752
3801.99426	0.00726
3799.93468	0.00739
3797.87509	0.00759
3795.81551	0.00731
3793.75592	0.00689
3791.69634	0.00677
3789.63675	0.00683
3787.57717	0.00689
3785.51758	0.00697
3783.45800	0.00698
3781.39841	0.00689
3779.33883	0.00720
3777.27924	0.00794
3775.21966	0.00814
3773.16007	0.00780
3771.10049	0.00791
3769.04090	0.00838
3766.98132	0.00846
3764.92173	0.00824
3762.86214	0.00802
3760.80256	0.00789
3758.74297	0.00814
3756.68339	0.00851
3754.62380	0.00828
3752.56422	0.00751
3750.50463	0.00665
3748.44505	0.00589
3746.38546	0.00579
3744.32588	0.00669
3742.26629	0.00793
3740.20671	0.00860
3738.14712	0.00854
3736.08754	0.00784
3734.02795	0.00681
3731.96837	0.00623
3729.90878	0.00654
3727.84920	0.00722
3725.78961	0.00782
3723.73003	0.00839
3721.67044	0.00875
3719.61086	0.00877
3717.55127	0.00884
3715.49169	0.00885
3713.43210	0.00819
3711.37251	0.00702
3709.31293	0.00648
3707.25334	0.00693
3705.19376	0.00771
3703.13417	0.00809
3701.07459	0.00798
3699.01500	0.00768
3696.95542	0.00752
3694.89583	0.00771
3692.83625	0.00817
3690.77666	0.00886
3688.71708	0.00985
3686.65749	0.01037
3684.59791	0.00995
3682.53832	0.00959
3680.47874	0.01022
3678.41915	0.01129
3676.35957	0.01201
3674.29998	0.01243
3672.24040	0.01273
3670.18081	0.01299
3668.12123	0.01332
3666.06164	0.01367
3664.00206	0.01416
3661.94247	0.01491
3659.88289	0.01573
3657.82330	0.01636
3655.76371	0.01666
3653.70413	0.01684
3651.64454	0.01739
3649.58496	0.01825
3647.52537	0.01913
3645.46579	0.02004
3643.40620	0.02109
3641.34662	0.02229
3639.28703	0.02320
3637.22745	0.02341
3635.16786	0.02332
3633.10828	0.02382
3631.04869	0.02514
3628.98911	0.02645
3626.92952	0.02728
3624.86994	0.02804
3622.81035	0.02912
3620.75077	0.03055
3618.69118	0.03191
3616.63160	0.03283
3614.57201	0.03344
3612.51243	0.03397
3610.45284	0.03475
3608.39326	0.03617
3606.33367	0.03792
3604.27408	0.03952
3602.21450	0.04091
3600.15491	0.04195
3598.09533	0.04260
3596.03574	0.04321
3593.97616	0.04391
3591.91657	0.04456
3589.85699	0.04557
3587.79740	0.04723
3585.73782	0.04915
3583.67823	0.05059
3581.61865	0.05169
3579.55906	0.05303
3577.49948	0.05434
3575.43989	0.05513
3573.38031	0.05584
3571.32072	0.05688
3569.26114	0.05809
3567.20155	0.05953
3565.14197	0.06124
3563.08238	0.06280
3561.02280	0.06408
3558.96321	0.06542
3556.90363	0.06689
3554.84404	0.06830
3552.78446	0.06982
3550.72487	0.07149
3548.66528	0.07314
3546.60570	0.07455
3544.54611	0.07554
3542.48653	0.07661
3540.42694	0.07813
3538.36736	0.07955
3536.30777	0.08061
3534.24819	0.08159
3532.18860	0.08248
3530.12902	0.08337
3528.06943	0.08447
3526.00985	0.08570
3523.95026	0.08687
3521.89068	0.08779
3519.83109	0.08852
3517.77151	0.08956
3515.71192	0.09095
3513.65234	0.09210
3511.59275	0.09318
3509.53317	0.09440
3507.47358	0.09521
3505.41400	0.09572
3503.35441	0.09656
3501.29483	0.09746
3499.23524	0.09814
3497.17565	0.09888
3495.11607	0.09976
3493.05648	0.10097
3490.99690	0.10247
3488.93731	0.10343
3486.87773	0.10360
3484.81814	0.10387
3482.75856	0.10463
3480.69897	0.10555
3478.63939	0.10634
3476.57980	0.10703
3474.52022	0.10770
3472.46063	0.10821
3470.40105	0.10883
3468.34146	0.10987
3466.28188	0.11093
3464.22229	0.11166
3462.16271	0.11231
3460.10312	0.11305
3458.04354	0.11371
3455.98395	0.11443
3453.92437	0.11541
3451.86478	0.11611
3449.80520	0.11619
3447.74561	0.11663
3445.68603	0.11829
3443.62644	0.12018
3441.56685	0.12121
3439.50727	0.12197
3437.44768	0.12310
3435.38810	0.12428
3433.32851	0.12530
3431.26893	0.12651
3429.20934	0.12829
3427.14976	0.13009
3425.09017	0.13120
3423.03059	0.13218
3420.97100	0.13361
3418.91142	0.13514
3416.85183	0.13638
3414.79225	0.13778
3412.73266	0.13982
3410.67308	0.14189
3408.61349	0.14355
3406.55391	0.14522
3404.49432	0.14688
3402.43474	0.14834
3400.37515	0.15005
3398.31557	0.15207
3396.25598	0.15372
3394.19640	0.15491
3392.13681	0.15617
3390.07723	0.15786
3388.01764	0.15985
3385.95805	0.16205
3383.89847	0.16422
3381.83888	0.16608
3379.77930	0.16762
3377.71971	0.16909
3375.66013	0.17087
3373.60054	0.17317
3371.54096	0.17592
3369.48137	0.17869
3367.42179	0.18084
3365.36220	0.18262
3363.30262	0.18475
3361.24303	0.18699
3359.18345	0.18879
3357.12386	0.19076
3355.06428	0.19389
3353.00469	0.19748
3350.94511	0.20008
3348.88552	0.20217
3346.82594	0.20485
3344.76635	0.20792
3342.70677	0.21071
3340.64718	0.21337
3338.58760	0.21645
3336.52801	0.21979
3334.46842	0.22299
3332.40884	0.22605
3330.34925	0.22910
3328.28967	0.23223
3326.23008	0.23551
3324.17050	0.23901
3322.11091	0.24283
3320.05133	0.24663
3317.99174	0.24998
3315.93216	0.25323
3313.87257	0.25650
3311.81299	0.25986
3309.75340	0.26353
3307.69382	0.26712
3305.63423	0.27041
3303.57465	0.27384
3301.51506	0.27746
3299.45548	0.28091
3297.39589	0.28414
3295.33631	0.28742
3293.27672	0.29068
3291.21714	0.29314
3289.15755	0.29464
3287.09797	0.29610
3285.03838	0.29787
3282.97880	0.29953
3280.91921	0.30071
3278.85962	0.30130
3276.80004	0.30148
3274.74045	0.30116
3272.68087	0.29999
3270.62128	0.29822
3268.56170	0.29622
3266.50211	0.29370
3264.44253	0.29042
3262.38294	0.28667
3260.32336	0.28285
3258.26377	0.27932
3256.20419	0.27589
3254.14460	0.27208
3252.08502	0.26822
3250.02543	0.26469
3247.96585	0.26159
3245.90626	0.25839
3243.84668	0.25464
3241.78709	0.25119
3239.72751	0.24881
3237.66792	0.24690
3235.60834	0.24450
3233.54875	0.24136
3231.48917	0.23758
3229.42958	0.23372
3227.36999	0.23077
3225.31041	0.22841
3223.25082	0.22580
3221.19124	0.22309
3219.13165	0.22046
3217.07207	0.21785
3215.01248	0.21547
3212.95290	0.21313
3210.89331	0.21042
3208.83373	0.20741
3206.77414	0.20445
3204.71456	0.20171
3202.65497	0.19903
3200.59539	0.19608
3198.53580	0.19288
3196.47622	0.18955
3194.41663	0.18599
3192.35705	0.18244
3190.29746	0.17939
3188.23788	0.17671
3186.17829	0.17409
3184.11871	0.17119
3182.05912	0.16769
3179.99954	0.16410
3177.93995	0.16092
3175.88037	0.15778
3173.82078	0.15434
3171.76119	0.15095
3169.70161	0.14806
3167.64202	0.14561
3165.58244	0.14318
3163.52285	0.14062
3161.46327	0.13812
3159.40368	0.13543
3157.34410	0.13247
3155.28451	0.12999
3153.22493	0.12803
3151.16534	0.12579
3149.10576	0.12333
3147.04617	0.12116
3144.98659	0.11925
3142.92700	0.11756
3140.86742	0.11600
3138.80783	0.11443
3136.74825	0.11281
3134.68866	0.11129
3132.62908	0.11017
3130.56949	0.10941
3128.50991	0.10846
3126.45032	0.10748
3124.39074	0.10716
3122.33115	0.10747
3120.27156	0.10808
3118.21198	0.10842
3116.15239	0.10810
3114.09281	0.10764
3112.03322	0.10786
3109.97364	0.10872
3107.91405	0.10959
3105.85447	0.11028
3103.79488	0.11109
3101.73530	0.11204
3099.67571	0.11293
3097.61613	0.11390
3095.55654	0.11500
3093.49696	0.11604
3091.43737	0.11706
3089.37779	0.11820
3087.31820	0.11939
3085.25862	0.12070
3083.19903	0.12205
3081.13945	0.12310
3079.07986	0.12372
3077.02028	0.12385
3074.96069	0.12393
3072.90111	0.12434
3070.84152	0.12451
3068.78194	0.12407
3066.72235	0.12333
3064.66276	0.12249
3062.60318	0.12175
3060.54359	0.12108
3058.48401	0.12025
3056.42442	0.11936
3054.36484	0.11852
3052.30525	0.11741
3050.24567	0.11564
3048.18608	0.11339
3046.12650	0.11099
3044.06691	0.10851
3042.00733	0.10617
3039.94774	0.10417
3037.88816	0.10212
3035.82857	0.09981
3033.76899	0.09764
3031.70940	0.09567
3029.64982	0.09352
3027.59023	0.09125
3025.53065	0.08922
3023.47106	0.08760
3021.41148	0.08630
3019.35189	0.08498
3017.29231	0.08357
3015.23272	0.08246
3013.17313	0.08155
3011.11355	0.08040
3009.05396	0.07928
3006.99438	0.07871
3004.93479	0.07855
3002.87521	0.07856
3000.81562	0.07896
2998.75604	0.07979
2996.69645	0.08082
2994.63687	0.08205
2992.57728	0.08340
2990.51770	0.08472
2988.45811	0.08619
2986.39853	0.08748
2984.33894	0.08828
2982.27936	0.08902
2980.21977	0.08972
2978.16019	0.08970
2976.10060	0.08905
2974.04102	0.08838
2971.98143	0.08789
2969.92185	0.08760
2967.86226	0.08729
2965.80268	0.08667
2963.74309	0.08616
2961.68351	0.08609
2959.62392	0.08594
2957.56433	0.08550
2955.50475	0.08530
2953.44516	0.08552
2951.38558	0.08615
2949.32599	0.08745
2947.26641	0.08934
2945.20682	0.09149
2943.14724	0.09389
2941.08765	0.09624
2939.02807	0.09809
2936.96848	0.09934
2934.90890	0.09969
2932.84931	0.09909
2930.78973	0.09785
2928.73014	0.09591
2926.67056	0.09335
2924.61097	0.09063
2922.55139	0.08810
2920.49180	0.08578
2918.43222	0.08335
2916.37263	0.08066
2914.31305	0.07775
2912.25346	0.07472
2910.19388	0.07189
2908.13429	0.06931
2906.07471	0.06713
2904.01512	0.06556
2901.95553	0.06451
2899.89595	0.06364
2897.83636	0.06268
2895.77678	0.06162
2893.71719	0.06070
2891.65761	0.06023
2889.59802	0.06003
2887.53844	0.05966
2885.47885	0.05924
2883.41927	0.05938
2881.35968	0.05999
2879.30010	0.06037
2877.24051	0.06012
2875.18093	0.05933
2873.12134	0.05812
2871.06176	0.05651
2869.00217	0.05475
2866.94259	0.05347
2864.88300	0.05269
2862.82342	0.05170
2860.76383	0.05050
2858.70425	0.04955
2856.64466	0.04885
2854.58508	0.04826
2852.52549	0.04783
2850.46590	0.04762
2848.40632	0.04734
2846.34673	0.04652
2844.28715	0.04531
2842.22756	0.04446
2840.16798	0.04410
2838.10839	0.04368
2836.04881	0.04313
2833.98922	0.04266
2831.92964	0.04244
2829.87005	0.04244
2827.81047	0.04225
2825.75088	0.04178
2823.69130	0.04141
2821.63171	0.04140
2819.57213	0.04159
2817.51254	0.04144
2815.45296	0.04088
2813.39337	0.04038
2811.33379	0.04017
2809.27420	0.03990
2807.21462	0.03939
2805.15503	0.03891
2803.09545	0.03857
2801.03586	0.03818
2798.97628	0.03767
2796.91669	0.03712
2794.85710	0.03674
2792.79752	0.03649
2790.73793	0.03621
2788.67835	0.03567
2786.61876	0.03486
2784.55918	0.03421
2782.49959	0.03378
2780.44001	0.03339
2778.38042	0.03300
2776.32084	0.03255
2774.26125	0.03204
2772.20167	0.03159
2770.14208	0.03112
2768.08250	0.03052
2766.02291	0.03003
2763.96333	0.02982
2761.90374	0.02971
2759.84416	0.02948
2757.78457	0.02903
2755.72499	0.02840
2753.66540	0.02778
2751.60582	0.02736
2749.54623	0.02713
2747.48665	0.02706
2745.42706	0.02679
2743.36747	0.02612
2741.30789	0.02542
2739.24830	0.02497
2737.18872	0.02468
2735.12913	0.02427
2733.06955	0.02386
2731.00996	0.02378
2728.95038	0.02377
2726.89079	0.02353
2724.83121	0.02322
2722.77162	0.02306
2720.71204	0.02304
2718.65245	0.02292
2716.59287	0.02262
2714.53328	0.02230
2712.47370	0.02215
2710.41411	0.02209
2708.35453	0.02202
2706.29494	0.02185
2704.23536	0.02153
2702.17577	0.02113
2700.11619	0.02080
2698.05660	0.02071
2695.99702	0.02082
2693.93743	0.02087
2691.87785	0.02085
2689.81826	0.02063
2687.75867	0.02019
2685.69909	0.01992
2683.63950	0.01988
2681.57992	0.01970
2679.52033	0.01952
2677.46075	0.01965
2675.40116	0.01971
2673.34158	0.01928
2671.28199	0.01878
2669.22241	0.01871
2667.16282	0.01889
2665.10324	0.01904
2663.04365	0.01907
2660.98407	0.01902
2658.92448	0.01904
2656.86490	0.01889
2654.80531	0.01863
2652.74573	0.01852
2650.68614	0.01849
2648.62656	0.01845
2646.56697	0.01843
2644.50739	0.01840
2642.44780	0.01829
2640.38822	0.01815
2638.32863	0.01807
2636.26904	0.01794
2634.20946	0.01772
2632.14987	0.01748
2630.09029	0.01729
2628.03070	0.01721
2625.97112	0.01731
2623.91153	0.01747
2621.85195	0.01748
2619.79236	0.01751
2617.73278	0.01765
2615.67319	0.01750
2613.61361	0.01703
2611.55402	0.01676
2609.49444	0.01689
2607.43485	0.01701
2605.37527	0.01691
2603.31568	0.01672
2601.25610	0.01637
2599.19651	0.01600
2597.13693	0.01572
2595.07734	0.01562
2593.01776	0.01585
2590.95817	0.01591
2588.89859	0.01539
2586.83900	0.01493
2584.77942	0.01487
2582.71983	0.01467
2580.66024	0.01435
2578.60066	0.01419
2576.54107	0.01402
2574.48149	0.01371
2572.42190	0.01336
2570.36232	0.01310
2568.30273	0.01291
2566.24315	0.01267
2564.18356	0.01242
2562.12398	0.01235
2560.06439	0.01263
2558.00481	0.01319
2555.94522	0.01340
2553.88564	0.01298
2551.82605	0.01242
2549.76647	0.01228
2547.70688	0.01272
2545.64730	0.01309
2543.58771	0.01284
2541.52813	0.01249
2539.46854	0.01238
2537.40896	0.01216
2535.34937	0.01172
2533.28979	0.01136
2531.23020	0.01134
2529.17062	0.01157
2527.11103	0.01184
2525.05144	0.01187
2522.99186	0.01155
2520.93227	0.01154
2518.87269	0.01180
2516.81310	0.01168
2514.75352	0.01140
2512.69393	0.01140
2510.63435	0.01161
2508.57476	0.01168
2506.51518	0.01159
2504.45559	0.01159
2502.39601	0.01159
2500.33642	0.01143
2498.27684	0.01135
2496.21725	0.01155
2494.15767	0.01171
2492.09808	0.01149
2490.03850	0.01094
2487.97891	0.01064
2485.91933	0.01075
2483.85974	0.01083
2481.80016	0.01065
2479.74057	0.01063
2477.68099	0.01091
2475.62140	0.01092
2473.56181	0.01063
2471.50223	0.01045
2469.44264	0.01025
2467.38306	0.01004
2465.32347	0.01014
2463.26389	0.01047
2461.20430	0.01057
2459.14472	0.01030
2457.08513	0.00990
2455.02555	0.00964
2452.96596	0.00972
2450.90638	0.00995
2448.84679	0.01006
2446.78721	0.01006
2444.72762	0.00997
2442.66804	0.00987
2440.60845	0.00983
2438.54887	0.00969
2436.48928	0.00949
2434.42970	0.00936
2432.37011	0.00927
2430.31053	0.00925
2428.25094	0.00959
2426.19136	0.00994
2424.13177	0.00984
2422.07219	0.00960
2420.01260	0.00949
2417.95301	0.00934
2415.89343	0.00922
2413.83384	0.00922
2411.77426	0.00909
2409.71467	0.00876
2407.65509	0.00852
2405.59550	0.00855
2403.53592	0.00866
2401.47633	0.00875
2399.41675	0.00896
2397.35716	0.00895
2395.29758	0.00897
2393.23799	0.00888
2391.17841	0.00846
2389.11882	0.00809
2387.05924	0.00819
2384.99965	0.00853
2382.94007	0.00869
2380.88048	0.00864
2378.82090	0.00863
2376.76131	0.00881
2374.70173	0.00982
2372.64214	0.01112
2370.58256	0.01183
2368.52297	0.01196
2366.46338	0.01133
2364.40380	0.01155
2362.34421	0.01249
2360.28463	0.01266
2358.22504	0.01262
2356.16546	0.01194
2354.10587	0.01087
2352.04629	0.00969
2349.98670	0.00824
2347.92712	0.00885
2345.86753	0.01045
2343.80795	0.01098
2341.74836	0.01134
2339.68878	0.01074
2337.62919	0.01054
2335.56961	0.01091
2333.51002	0.01067
2331.45044	0.01098
2329.39085	0.01090
2327.33127	0.01157
2325.27168	0.01219
2323.21210	0.01262
2321.15251	0.01203
2319.09293	0.01129
2317.03334	0.01119
2314.97376	0.01107
2312.91417	0.01067
2310.85458	0.01048
2308.79500	0.01040
2306.73541	0.01008
2304.67583	0.00974
2302.61624	0.00973
2300.55666	0.00981
2298.49707	0.00977
2296.43749	0.00971
2294.37790	0.00971
2292.31832	0.00958
2290.25873	0.00954
2288.19915	0.00963
2286.13956	0.00971
2284.07998	0.00972
2282.02039	0.00963
2279.96081	0.00930
2277.90122	0.00887
2275.84164	0.00840
2273.78205	0.00811
2271.72247	0.00851
2269.66288	0.00912
2267.60330	0.00897
2265.54371	0.00823
2263.48413	0.00778
2261.42454	0.00775
2259.36495	0.00778
2257.30537	0.00792
2255.24578	0.00807
2253.18620	0.00786
2251.12661	0.00765
2249.06703	0.00779
2247.00744	0.00795
2244.94786	0.00837
2242.88827	0.00835
2240.82869	0.00779
2238.76910	0.00755
2236.70952	0.00741
2234.64993	0.00722
2232.59035	0.00747
2230.53076	0.00799
2228.47118	0.00828
2226.41159	0.00817
2224.35201	0.00762
2222.29242	0.00694
2220.23284	0.00669
2218.17325	0.00675
2216.11367	0.00706
2214.05408	0.00780
2211.99450	0.00842
2209.93491	0.00851
2207.87533	0.00859
2205.81574	0.00865
2203.75615	0.00802
2201.69657	0.00742
2199.63698	0.00763
2197.57740	0.00773
2195.51781	0.00732
2193.45823	0.00723
2191.39864	0.00722
2189.33906	0.00715
2187.27947	0.00780
2185.21989	0.00906
2183.16030	0.00928
2181.10072	0.00777
2179.04113	0.00665
2176.98155	0.00704
2174.92196	0.00767
2172.86238	0.00721
2170.80279	0.00650
2168.74321	0.00673
2166.68362	0.00752
2164.62404	0.00828
2162.56445	0.00846
2160.50487	0.00715
2158.44528	0.00458
2156.38570	0.00335
2154.32611	0.00427
2152.26652	0.00567
2150.20694	0.00641
2148.14735	0.00610
2146.08777	0.00551
2144.02818	0.00548
2141.96860	0.00588
2139.90901	0.00642
2137.84943	0.00664
2135.78984	0.00628
2133.73026	0.00591
2131.67067	0.00608
2129.61109	0.00630
2127.55150	0.00609
2125.49192	0.00619
2123.43233	0.00685
2121.37275	0.00746
2119.31316	0.00788
2117.25358	0.00843
2115.19399	0.00911
2113.13441	0.00906
2111.07482	0.00834
2109.01524	0.00820
2106.95565	0.00847
2104.89607	0.00815
2102.83648	0.00752
2100.77690	0.00728
2098.71731	0.00721
2096.65772	0.00702
2094.59814	0.00701
2092.53855	0.00759
2090.47897	0.00837
2088.41938	0.00862
2086.35980	0.00812
2084.30021	0.00726
2082.24063	0.00675
2080.18104	0.00670
2078.12146	0.00676
2076.06187	0.00706
2074.00229	0.00763
2071.94270	0.00809
2069.88312	0.00809
2067.82353	0.00777
2065.76395	0.00764
2063.70436	0.00732
2061.64478	0.00683
2059.58519	0.00731
2057.52561	0.00847
2055.46602	0.00888
2053.40644	0.00860
2051.34685	0.00830
2049.28727	0.00761
2047.22768	0.00687
2045.16810	0.00710
2043.10851	0.00770
2041.04892	0.00786
2038.98934	0.00720
2036.92975	0.00631
2034.87017	0.00627
2032.81058	0.00655
2030.75100	0.00588
2028.69141	0.00477
2026.63183	0.00504
2024.57224	0.00581
2022.51266	0.00500
2020.45307	0.00416
2018.39349	0.00525
2016.33390	0.00641
2014.27432	0.00600
2012.21473	0.00540
2010.15515	0.00564
2008.09556	0.00620
2006.03598	0.00662
2003.97639	0.00638
2001.91681	0.00551
1999.85722	0.00482
1997.79764	0.00443
1995.73805	0.00434
1993.67847	0.00459
1991.61888	0.00504
1989.55929	0.00555
1987.49971	0.00615
1985.44012	0.00668
1983.38054	0.00669
1981.32095	0.00654
1979.26137	0.00648
1977.20178	0.00600
1975.14220	0.00511
1973.08261	0.00416
1971.02303	0.00361
1968.96344	0.00365
1966.90386	0.00401
1964.84427	0.00458
1962.78469	0.00494
1960.72510	0.00482
1958.66552	0.00496
1956.60593	0.00556
1954.54635	0.00555
1952.48676	0.00496
1950.42718	0.00490
1948.36759	0.00504
1946.30801	0.00500
1944.24842	0.00539
1942.18884	0.00600
1940.12925	0.00597
1938.06967	0.00527
1936.01008	0.00464
1933.95049	0.00476
1931.89091	0.00556
1929.83132	0.00625
1927.77174	0.00640
1925.71215	0.00625
1923.65257	0.00604
1921.59298	0.00601
1919.53340	0.00638
1917.47381	0.00661
1915.41423	0.00602
1913.35464	0.00521
1911.29506	0.00515
1909.23547	0.00557
1907.17589	0.00560
1905.11630	0.00548
1903.05672	0.00580
1900.99713	0.00637
1898.93755	0.00683
1896.87796	0.00708
1894.81838	0.00704
1892.75879	0.00675
1890.69921	0.00649
1888.63962	0.00644
1886.58004	0.00661
1884.52045	0.00672
1882.46086	0.00643
1880.40128	0.00608
1878.34169	0.00615
1876.28211	0.00654
1874.22252	0.00678
1872.16294	0.00673
1870.10335	0.00672
1868.04377	0.00685
1865.98418	0.00669
1863.92460	0.00631
1861.86501	0.00604
1859.80543	0.00603
1857.74584	0.00629
1855.68626	0.00654
1853.62667	0.00656
1851.56709	0.00663
1849.50750	0.00675
1847.44792	0.00663
1845.38833	0.00643
1843.32875	0.00647
1841.26916	0.00658
1839.20958	0.00654
1837.14999	0.00662
1835.09041	0.00696
1833.03082	0.00726
1830.97124	0.00729
1828.91165	0.00709
1826.85206	0.00701
1824.79248	0.00734
1822.73289	0.00778
1820.67331	0.00787
1818.61372	0.00776
1816.55414	0.00779
1814.49455	0.00796
1812.43497	0.00817
1810.37538	0.00834
1808.31580	0.00835
1806.25621	0.00827
1804.19663	0.00830
1802.13704	0.00846
1800.07746	0.00864
1798.01787	0.00873
1795.95829	0.00883
1793.89870	0.00903
1791.83912	0.00919
1789.77953	0.00922
1787.71995	0.00932
1785.66036	0.00955
1783.60078	0.00980
1781.54119	0.01006
1779.48161	0.01030
1777.42202	0.01045
1775.36243	0.01054
1773.30285	0.01064
1771.24326	0.01070
1769.18368	0.01073
1767.12409	0.01086
1765.06451	0.01111
1763.00492	0.01139
1760.94534	0.01163
1758.88575	0.01187
1756.82617	0.01210
1754.76658	0.01226
1752.70700	0.01236
1750.64741	0.01261
1748.58783	0.01311
1746.52824	0.01362
1744.46866	0.01401
1742.40907	0.01439
1740.34949	0.01483
1738.28990	0.01526
1736.23032	0.01564
1734.17073	0.01609
1732.11115	0.01675
1730.05156	0.01751
1727.99198	0.01827
1725.93239	0.01912
1723.87281	0.02021
1721.81322	0.02155
1719.75363	0.02332
1717.69405	0.02588
1715.63446	0.02926
1713.57488	0.03322
1711.51529	0.03803
1709.45571	0.04416
1707.39612	0.05194
1705.33654	0.06114
1703.27695	0.07073
1701.21737	0.08080
1699.15778	0.09113
1697.09820	0.10010
1695.03861	0.10822
1692.97903	0.11589
1690.91944	0.12335
1688.85986	0.13114
1686.80027	0.13940
1684.74069	0.14928
1682.68110	0.16019
1680.62152	0.16974
1678.56193	0.17835
1676.50235	0.18756
1674.44276	0.19759
1672.38318	0.20745
1670.32359	0.21772
1668.26401	0.22876
1666.20442	0.23899
1664.14483	0.24876
1662.08525	0.25917
1660.02566	0.26918
1657.96608	0.27781
1655.90649	0.28590
1653.84691	0.29547
1651.78732	0.30538
1649.72774	0.31216
1647.66815	0.31750
1645.60857	0.32312
1643.54898	0.32748
1641.48940	0.32998
1639.42981	0.33129
1637.37023	0.33194
1635.31064	0.33212
1633.25106	0.33151
1631.19147	0.33004
1629.13189	0.32783
1627.07230	0.32481
1625.01272	0.32043
1622.95313	0.31393
1620.89355	0.30504
1618.83396	0.29313
1616.77438	0.27730
1614.71479	0.25971
1612.65520	0.24267
1610.59562	0.22518
1608.53603	0.20701
1606.47645	0.18985
1604.41686	0.17503
1602.35728	0.16291
1600.29769	0.15348
1598.23811	0.14631
1596.17852	0.14057
1594.11894	0.13558
1592.05935	0.13118
1589.99977	0.12762
1587.94018	0.12531
1585.88060	0.12447
1583.82101	0.12501
1581.76143	0.12674
1579.70184	0.12955
1577.64226	0.13375
1575.58267	0.13949
1573.52309	0.14564
1571.46350	0.15196
1569.40392	0.15958
1567.34433	0.16798
1565.28475	0.17614
1563.22516	0.18391
1561.16558	0.19233
1559.10599	0.20331
1557.04640	0.21490
1554.98682	0.22421
1552.92723	0.23258
1550.86765	0.24112
1548.80806	0.24962
1546.74848	0.25756
1544.68889	0.26504
1542.62931	0.27259
1540.56972	0.28071
1538.51014	0.28854
1536.45055	0.29438
1534.39097	0.29924
1532.33138	0.30410
1530.27180	0.30818
1528.21221	0.31140
1526.15263	0.31419
1524.09304	0.31669
1522.03346	0.31957
1519.97387	0.32346
1517.91429	0.32800
1515.85470	0.33209
1513.79512	0.33414
1511.73553	0.33333
1509.67595	0.32979
1507.61636	0.32322
1505.55677	0.31405
1503.49719	0.30447
1501.43760	0.29463
1499.37802	0.28316
1497.31843	0.26971
1495.25885	0.25554
1493.19926	0.24195
1491.13968	0.22812
1489.08009	0.21365
1487.02051	0.20016
1484.96092	0.18843
1482.90134	0.17794
1480.84175	0.16856
1478.78217	0.16076
1476.72258	0.15464
1474.66300	0.14994
1472.60341	0.14659
1470.54383	0.14460
1468.48424	0.14366
1466.42466	0.14366
1464.36507	0.14485
1462.30549	0.14709
1460.24590	0.15018
1458.18632	0.15447
1456.12673	0.15948
1454.06715	0.16344
1452.00756	0.16575
1449.94797	0.16654
1447.88839	0.16560
1445.82880	0.16295
1443.76922	0.15889
1441.70963	0.15387
1439.65005	0.14843
1437.59046	0.14268
1435.53088	0.13689
1433.47129	0.13217
1431.41171	0.12894
1429.35212	0.12709
1427.29254	0.12663
1425.23295	0.12745
1423.17337	0.12932
1421.11378	0.13212
1419.05420	0.13589
1416.99461	0.13998
1414.93503	0.14338
1412.87544	0.14581
1410.81586	0.14723
1408.75627	0.14746
1406.69669	0.14633
1404.63710	0.14393
1402.57752	0.14091
1400.51793	0.13802
1398.45834	0.13567
1396.39876	0.13416
1394.33917	0.13374
1392.27959	0.13428
1390.22000	0.13538
1388.16042	0.13676
1386.10083	0.13821
1384.04125	0.13936
1381.98166	0.13990
1379.92208	0.13976
1377.86249	0.13909
1375.80291	0.13786
1373.74332	0.13585
1371.68374	0.13301
1369.62415	0.12950
1367.56457	0.12535
1365.50498	0.12077
1363.44540	0.11608
1361.38581	0.11182
1359.32623	0.10851
1357.26664	0.10613
1355.20706	0.10452
1353.14747	0.10380
1351.08789	0.10401
1349.02830	0.10503
1346.96872	0.10674
1344.90913	0.10904
1342.84954	0.11177
1340.78996	0.11475
1338.73037	0.11761
1336.67079	0.11974
1334.61120	0.12088
1332.55162	0.12104
1330.49203	0.12015
1328.43245	0.11815
1326.37286	0.11537
1324.31328	0.11231
1322.25369	0.10938
1320.19411	0.10697
1318.13452	0.10536
1316.07494	0.10462
1314.01535	0.10459
1311.95577	0.10503
1309.89618	0.10579
1307.83660	0.10664
1305.77701	0.10739
1303.71743	0.10816
1301.65784	0.10917
1299.59826	0.11026
1297.53867	0.11119
1295.47909	0.11200
1293.41950	0.11288
1291.35991	0.11390
1289.30033	0.11497
1287.24074	0.11600
1285.18116	0.11707
1283.12157	0.11831
1281.06199	0.11979
1279.00240	0.12168
1276.94282	0.12407
1274.88323	0.12684
1272.82365	0.12984
1270.76406	0.13305
1268.70448	0.13634
1266.64489	0.13946
1264.58531	0.14227
1262.52572	0.14484
1260.46614	0.14715
1258.40655	0.14933
1256.34697	0.15169
1254.28738	0.15442
1252.22780	0.15751
1250.16821	0.16082
1248.10863	0.16422
1246.04904	0.16770
1243.98946	0.17122
1241.92987	0.17464
1239.87029	0.17784
1237.81070	0.18083
1235.75111	0.18345
1233.69153	0.18519
1231.63194	0.18561
1229.57236	0.18474
1227.51277	0.18270
1225.45319	0.17951
1223.39360	0.17522
1221.33402	0.16991
1219.27443	0.16363
1217.21485	0.15658
1215.15526	0.14914
1213.09568	0.14178
1211.03609	0.13471
1208.97651	0.12794
1206.91692	0.12154
1204.85734	0.11552
1202.79775	0.10987
1200.73817	0.10474
1198.67858	0.10025
1196.61900	0.09644
1194.55941	0.09329
1192.49983	0.09076
1190.44024	0.08886
1188.38066	0.08761
1186.32107	0.08695
1184.26149	0.08685
1182.20190	0.08742
1180.14231	0.08884
1178.08273	0.09110
1176.02314	0.09386
1173.96356	0.09656
1171.90397	0.09869
1169.84439	0.09992
1167.78480	0.10038
1165.72522	0.10031
1163.66563	0.09979
1161.60605	0.09886
1159.54646	0.09746
1157.48688	0.09565
1155.42729	0.09359
1153.36771	0.09131
1151.30812	0.08882
1149.24854	0.08628
1147.18895	0.08389
1145.12937	0.08170
1143.06978	0.07972
1141.01020	0.07801
1138.95061	0.07662
1136.89103	0.07562
1134.83144	0.07490
1132.77186	0.07417
1130.71227	0.07341
1128.65268	0.07283
1126.59310	0.07253
1124.53351	0.07249
1122.47393	0.07253
1120.41434	0.07252
1118.35476	0.07256
1116.29517	0.07258
1114.23559	0.07261
1112.17600	0.07284
1110.11642	0.07324
1108.05683	0.07377
1105.99725	0.07437
1103.93766	0.07468
1101.87808	0.07440
1099.81849	0.07361
1097.75891	0.07270
1095.69932	0.07213
1093.63974	0.07212
1091.58015	0.07268
1089.52057	0.07385
1087.46098	0.07561
1085.40140	0.07779
1083.34181	0.08014
1081.28223	0.08264
1079.22264	0.08519
1077.16306	0.08753
1075.10347	0.08951
1073.04388	0.09096
1070.98430	0.09185
1068.92471	0.09240
1066.86513	0.09276
1064.80554	0.09299
1062.74596	0.09322
1060.68637	0.09340
1058.62679	0.09345
1056.56720	0.09334
1054.50762	0.09286
1052.44803	0.09180
1050.38845	0.09012
1048.32886	0.08785
1046.26928	0.08524
1044.20969	0.08279
1042.15011	0.08066
1040.09052	0.07869
1038.03094	0.07684
1035.97135	0.07520
1033.91177	0.07391
1031.85218	0.07302
1029.79260	0.07233
1027.73301	0.07163
1025.67343	0.07100
1023.61384	0.07089
1021.55425	0.07201
1019.49467	0.07447
1017.43508	0.07736
1015.37550	0.07955
1013.31591	0.08020
1011.25633	0.07904
1009.19674	0.07638
1007.13716	0.07276
1005.07757	0.06882
1003.01799	0.06511
1000.95840	0.06182
998.89882	0.05885
996.83923	0.05618
994.77965	0.05369
992.72006	0.05127
990.66048	0.04899
988.60089	0.04704
986.54131	0.04547
984.48172	0.04444
982.42214	0.04400
980.36255	0.04392
978.30297	0.04386
976.24338	0.04366
974.18380	0.04333
972.12421	0.04303
970.06463	0.04282
968.00504	0.04277
965.94545	0.04291
963.88587	0.04322
961.82628	0.04367
959.76670	0.04420
957.70711	0.04470
955.64753	0.04509
953.58794	0.04543
951.52836	0.04588
949.46877	0.04641
947.40919	0.04677
945.34960	0.04679
943.29002	0.04652
941.23043	0.04615
939.17085	0.04573
937.11126	0.04522
935.05168	0.04465
932.99209	0.04413
930.93251	0.04366
928.87292	0.04316
926.81334	0.04254
924.75375	0.04171
922.69417	0.04074
920.63458	0.03972
918.57500	0.03866
916.51541	0.03768
914.45582	0.03684
912.39624	0.03609
910.33665	0.03541
908.27707	0.03482
906.21748	0.03430
904.15790	0.03384
902.09831	0.03346
900.03873	0.03319
897.97914	0.03308
895.91956	0.03301
893.85997	0.03276
891.80039	0.03245
889.74080	0.03228
887.68122	0.03220
885.62163	0.03217
883.56205	0.03217
881.50246	0.03217
879.44288	0.03226
877.38329	0.03247
875.32371	0.03264
873.26412	0.03274
871.20454	0.03301
869.14495	0.03355
867.08537	0.03421
865.02578	0.03496
862.96620	0.03594
860.90661	0.03709
858.84702	0.03826
856.78744	0.03943
854.72785	0.04048
852.66827	0.04121
850.60868	0.04151
848.54910	0.04140
846.48951	0.04120
844.42993	0.04119
842.37034	0.04150
840.31076	0.04222
838.25117	0.04316
836.19159	0.04397
834.13200	0.04462
832.07242	0.04527
830.01283	0.04572
827.95325	0.04580
825.89366	0.04560
823.83408	0.04521
821.77449	0.04476
819.71491	0.04452
817.65532	0.04457
815.59574	0.04480
813.53615	0.04530
811.47657	0.04595
809.41698	0.04649
807.35740	0.04692
805.29781	0.04734
803.23822	0.04766
801.17864	0.04788
799.11905	0.04805
797.05947	0.04817
794.99988	0.04842
792.94030	0.04892
790.88071	0.04948
788.82113	0.05011
786.76154	0.05074
784.70196	0.05127
782.64237	0.05187
780.58279	0.05259
778.52320	0.05328
776.46362	0.05389
774.40403	0.05459
772.34445	0.05548
770.28486	0.05628
768.22528	0.05687
766.16569	0.05760
764.10611	0.05855
762.04652	0.05941
759.98694	0.06016
757.92735	0.06104
755.86777	0.06206
753.80818	0.06313
751.74859	0.06424
749.68901	0.06531
747.62942	0.06630
745.56984	0.06732
743.51025	0.06846
741.45067	0.06975
739.39108	0.07115
737.33150	0.07238
735.27191	0.07334
733.21233	0.07422
731.15274	0.07516
729.09316	0.07628
727.03357	0.07757
724.97399	0.07856
722.91440	0.07924
720.85482	0.08002
718.79523	0.08090
716.73565	0.08188
714.67606	0.08285
712.61648	0.08385
710.55689	0.08495
708.49731	0.08601
706.43772	0.08695
704.37814	0.08802
702.31855	0.08925
700.25897	0.09034
698.19938	0.09127
696.13979	0.09213
694.08021	0.09283
692.02062	0.09334
689.96104	0.09376
687.90145	0.09429
685.84187	0.09503
683.78228	0.09590
681.72270	0.09672
679.66311	0.09739
677.60353	0.09788
675.54394	0.09823
673.48436	0.09863
671.42477	0.09893
669.36519	0.09939
667.30560	0.10164
665.24602	0.10105
663.18643	0.10108
661.12685	0.10131
659.06726	0.10162
657.00768	0.10210
654.94809	0.10254
652.88851	0.10272
650.82892	0.10269
648.76934	0.10268
646.70975	0.10273
644.65016	0.10292
642.59058	0.10307
640.53099	0.10296
638.47141	0.10282
636.41182	0.10296
634.35224	0.10321
632.29265	0.10329
630.23307	0.10325
628.17348	0.10321
626.11390	0.10321
624.05431	0.10317
621.99473	0.10298
619.93514	0.10273
617.87556	0.10253
615.81597	0.10253
613.75639	0.10287
611.69680	0.10321
609.63722	0.10319
607.57763	0.10302
605.51805	0.10293
603.45846	0.10287
601.39888	0.10285
599.33929	0.10287
597.27971	0.10273
595.22012	0.10250
593.16054	0.10249
591.10095	0.10275
589.04136	0.10305
586.98178	0.10334
584.92219	0.10380
582.86261	0.10436
580.80302	0.10473
578.74344	0.10496
576.68385	0.10540
574.62427	0.10608
572.56468	0.10676
570.50510	0.10756
568.44551	0.10859
566.38593	0.10967
564.32634	0.11077
562.26676	0.11189
560.20717	0.11286
558.14759	0.11391
556.08800	0.11533
554.02842	0.11656
551.96883	0.11721
549.90925	0.11764
547.84966	0.11818
545.79008	0.11886
543.73049	0.11948
541.67091	0.11984
539.61132	0.11984
537.55173	0.11949
535.49215	0.11882
533.43256	0.11808
531.37298	0.11756
529.31339	0.11721
527.25381	0.11691
525.19422	0.11656
523.13464	0.11623
521.07505	0.11615
519.01547	0.11628
516.95588	0.11639
514.89630	0.11636
512.83671	0.11606
510.77713	0.11551
508.71754	0.11502
506.65796	0.11472
504.59837	0.11445
502.53879	0.11401
500.47920	0.11333
498.41962	0.11270
496.36003	0.11234
494.30045	0.11201
492.24086	0.11148
490.18128	0.11096
488.12169	0.11068
486.06211	0.11028
484.00252	0.10942
481.94293	0.10842
479.88335	0.10763
477.82376	0.10706
475.76418	0.10653
473.70459	0.10577
471.64501	0.10494
469.58542	0.10444
467.52584	0.10409
465.46625	0.10349
463.40667	0.10255
461.34708	0.10138
459.28750	0.10037
457.22791	0.09967
455.16833	0.09903
453.10874	0.09826
451.04916	0.09719
448.98957	0.09596
446.92999	0.09517
444.87040	0.09493
442.81082	0.09477
440.75123	0.09445
438.69165	0.09409
436.63206	0.09379
434.57248	0.09341
432.51289	0.09302
430.45330	0.09291
428.39372	0.09303
426.33413	0.09307
424.27455	0.09286
422.21496	0.09236
420.15538	0.09167
418.09579	0.09101
416.03621	0.09054
413.97662	0.09021
411.91704	0.08997
409.85745	0.08952
407.79787	0.08850
405.73828	0.08728
403.67870	0.08676
401.61911	0.08667
399.55953	0.08626
