3997.65486	0.00386
3995.59527	0.00353
3993.53569	0.00349
3991.47610	0.00416
3989.41652	0.00495
3987.35693	0.00496
3985.29735	0.00437
3983.23776	0.00395
3981.17817	0.00382
3979.11859	0.00361
3977.05900	0.00336
3974.99942	0.00334
3972.93983	0.00344
3970.88025	0.00348
3968.82066	0.00324
3966.76108	0.00297
3964.70149	0.00322
3962.64191	0.00364
3960.58232	0.00361
3958.52274	0.00340
3956.46315	0.00355
3954.40357	0.00384
3952.34398	0.00391
3950.28440	0.00375
3948.22481	0.00359
3946.16523	0.00376
3944.10564	0.00435
3942.04606	0.00481
3939.98647	0.00461
3937.92689	0.00414
3935.86730	0.00388
3933.80772	0.00356
3931.74813	0.00299
3929.68855	0.00255
3927.62896	0.00249
3925.56937	0.00281
3923.50979	0.00344
3921.45020	0.00395
3919.39062	0.00373
3917.33103	0.00294
3915.27145	0.00266
3913.21186	0.00300
3911.15228	0.00323
3909.09269	0.00339
3907.03311	0.00357
3904.97352	0.00349
3902.91394	0.00328
3900.85435	0.00310
3898.79477	0.00281
3896.73518	0.00269
3894.67560	0.00307
3892.61601	0.00369
3890.55643	0.00414
3888.49684	0.00416
3886.43726	0.00385
3884.37767	0.00351
3882.31809	0.00310
3880.25850	0.00279
3878.19892	0.00307
3876.13933	0.00365
3874.07974	0.00368
3872.02016	0.00317
3869.96057	0.00268
3867.90099	0.00236
3865.84140	0.00222
3863.78182	0.00249
3861.72223	0.00293
3859.66265	0.00294
3857.60306	0.00274
3855.54348	0.00292
3853.48389	0.00334
3851.42431	0.00343
3849.36472	0.00308
3847.30514	0.00251
3845.24555	0.00206
3843.18597	0.00205
3841.12638	0.00240
3839.06680	0.00291
3837.00721	0.00334
3834.94763	0.00356
3832.88804	0.00360
3830.82846	0.00356
3828.76887	0.00349
3826.70929	0.00303
3824.64970	0.00217
3822.59012	0.00185
3820.53053	0.00265
3818.47094	0.00366
3816.41136	0.00382
3814.35177	0.00336
3812.29219	0.00287
3810.23260	0.00250
3808.17302	0.00230
3806.11343	0.00240
3804.05385	0.00272
3801.99426	0.00299
3799.93468	0.00316
3797.87509	0.00326
3795.81551	0.00341
3793.75592	0.00372
3791.69634	0.00371
3789.63675	0.00315
3787.57717	0.00255
3785.51758	0.00219
3783.45800	0.00209
3781.39841	0.00247
3779.33883	0.00302
3777.27924	0.00297
3775.21966	0.00250
3773.16007	0.00226
3771.10049	0.00220
3769.04090	0.00214
3766.98132	0.00223
3764.92173	0.00242
3762.86214	0.00257
3760.80256	0.00257
3758.74297	0.00257
3756.68339	0.00298
3754.62380	0.00367
3752.56422	0.00415
3750.50463	0.00421
3748.44505	0.00370
3746.38546	0.00297
3744.32588	0.00292
3742.26629	0.00371
3740.20671	0.00435
3738.14712	0.00409
3736.08754	0.00304
3734.02795	0.00217
3731.96837	0.00214
3729.90878	0.00260
3727.84920	0.00294
3725.78961	0.00300
3723.73003	0.00298
3721.67044	0.00306
3719.61086	0.00307
3717.55127	0.00271
3715.49169	0.00216
3713.43210	0.00204
3711.37251	0.00251
3709.31293	0.00317
3707.25334	0.00354
3705.19376	0.00357
3703.13417	0.00351
3701.07459	0.00364
3699.01500	0.00382
3696.95542	0.00380
3694.89583	0.00384
3692.83625	0.00398
3690.77666	0.00371
3688.71708	0.00346
3686.65749	0.00390
3684.59791	0.00436
3682.53832	0.00425
3680.47874	0.00414
3678.41915	0.00474
3676.35957	0.00583
3674.29998	0.00658
3672.24040	0.00639
3670.18081	0.00569
3668.12123	0.00554
3666.06164	0.00610
3664.00206	0.00668
3661.94247	0.00716
3659.88289	0.00762
3657.82330	0.00770
3655.76371	0.00751
3653.70413	0.00773
3651.64454	0.00841
3649.58496	0.00912
3647.52537	0.00958
3645.46579	0.00984
3643.40620	0.01023
3641.34662	0.01079
3639.28703	0.01134
3637.22745	0.01197
3635.16786	0.01279
3633.10828	0.01337
3631.04869	0.01330
3628.98911	0.01301
3626.92952	0.01327
3624.86994	0.01397
3622.81035	0.01444
3620.75077	0.01451
3618.69118	0.01468
3616.63160	0.01539
3614.57201	0.01628
3612.51243	0.01691
3610.45284	0.01742
3608.39326	0.01784
3606.33367	0.01822
3604.27408	0.01894
3602.21450	0.02025
3600.15491	0.02168
3598.09533	0.02228
3596.03574	0.02195
3593.97616	0.02150
3591.91657	0.02145
3589.85699	0.02188
3587.79740	0.02267
3585.73782	0.02350
3583.67823	0.02414
3581.61865	0.02454
3579.55906	0.02484
3577.49948	0.02541
3575.43989	0.02656
3573.38031	0.02804
3571.32072	0.02944
3569.26114	0.03064
3567.20155	0.03126
3565.14197	0.03103
3563.08238	0.03099
3561.02280	0.03184
3558.96321	0.03267
3556.90363	0.03268
3554.84404	0.03248
3552.78446	0.03286
3550.72487	0.03381
3548.66528	0.03470
3546.60570	0.03540
3544.54611	0.03623
3542.48653	0.03722
3540.42694	0.03810
3538.36736	0.03854
3536.30777	0.03867
3534.24819	0.03881
3532.18860	0.03937
3530.12902	0.04056
3528.06943	0.04176
3526.00985	0.04252
3523.95026	0.04309
3521.89068	0.04353
3519.83109	0.04388
3517.77151	0.04437
3515.71192	0.04493
3513.65234	0.04535
3511.59275	0.04567
3509.53317	0.04587
3507.47358	0.04588
3505.41400	0.04614
3503.35441	0.04691
3501.29483	0.04776
3499.23524	0.04849
3497.17565	0.04912
3495.11607	0.04925
3493.05648	0.04909
3490.99690	0.04927
3488.93731	0.04981
3486.87773	0.05034
3484.81814	0.05066
3482.75856	0.05099
3480.69897	0.05148
3478.63939	0.05208
3476.57980	0.05285
3474.52022	0.05356
3472.46063	0.05370
3470.40105	0.05357
3468.34146	0.05408
3466.28188	0.05486
3464.22229	0.05497
3462.16271	0.05467
3460.10312	0.05475
3458.04354	0.05541
3455.98395	0.05591
3453.92437	0.05596
3451.86478	0.05630
3449.80520	0.05683
3447.74561	0.05708
3445.68603	0.05746
3443.62644	0.05819
3441.56685	0.05872
3439.50727	0.05897
3437.44768	0.05929
3435.38810	0.05963
3433.32851	0.06000
3431.26893	0.06078
3429.20934	0.06195
3427.14976	0.06295
3425.09017	0.06341
3423.03059	0.06361
3420.97100	0.06405
3418.91142	0.06490
3416.85183	0.06596
3414.79225	0.06679
3412.73266	0.06721
3410.67308	0.06725
3408.61349	0.06715
3406.55391	0.06764
3404.49432	0.06888
3402.43474	0.07023
3400.37515	0.07120
3398.31557	0.07209
3396.25598	0.07298
3394.19640	0.07366
3392.13681	0.07434
3390.07723	0.07541
3388.01764	0.07675
3385.95805	0.07767
3383.89847	0.07780
3381.83888	0.07773
3379.77930	0.07822
3377.71971	0.07932
3375.66013	0.08032
3373.60054	0.08107
3371.54096	0.08193
3369.48137	0.08295
3367.42179	0.08423
3365.36220	0.08550
3363.30262	0.08634
3361.24303	0.08743
3359.18345	0.08920
3357.12386	0.09103
3355.06428	0.09257
3353.00469	0.09373
3350.94511	0.09494
3348.88552	0.09680
3346.82594	0.09889
3344.76635	0.10066
3342.70677	0.10261
3340.64718	0.10520
3338.58760	0.10774
3336.52801	0.10999
3334.46842	0.11219
3332.40884	0.11420
3330.34925	0.11642
3328.28967	0.11940
3326.23008	0.12284
3324.17050	0.12615
3322.11091	0.12925
3320.05133	0.13250
3317.99174	0.13606
3315.93216	0.13985
3313.87257	0.14387
3311.81299	0.14794
3309.75340	0.15188
3307.69382	0.15590
3305.63423	0.15996
3303.57465	0.16377
3301.51506	0.16744
3299.45548	0.17126
3297.39589	0.17534
3295.33631	0.17987
3293.27672	0.18465
3291.21714	0.18894
3289.15755	0.19225
3287.09797	0.19489
3285.03838	0.19764
3282.97880	0.20007
3280.91921	0.20113
3278.85962	0.20119
3276.80004	0.20101
3274.74045	0.20038
3272.68087	0.19904
3270.62128	0.19717
3268.56170	0.19484
3266.50211	0.19193
3264.44253	0.18847
3262.38294	0.18462
3260.32336	0.18048
3258.26377	0.17645
3256.20419	0.17296
3254.14460	0.16949
3252.08502	0.16525
3250.02543	0.16069
3247.96585	0.15679
3245.90626	0.15348
3243.84668	0.15037
3241.78709	0.14754
3239.72751	0.14469
3237.66792	0.14145
3235.60834	0.13818
3233.54875	0.13551
3231.48917	0.13291
3229.42958	0.12984
3227.36999	0.12707
3225.31041	0.12476
3223.25082	0.12224
3221.19124	0.11957
3219.13165	0.11715
3217.07207	0.11495
3215.01248	0.11277
3212.95290	0.11055
3210.89331	0.10846
3208.83373	0.10672
3206.77414	0.10535
3204.71456	0.10375
3202.65497	0.10143
3200.59539	0.09886
3198.53580	0.09646
3196.47622	0.09421
3194.41663	0.09221
3192.35705	0.09041
3190.29746	0.08855
3188.23788	0.08641
3186.17829	0.08386
3184.11871	0.08155
3182.05912	0.07991
3179.99954	0.07835
3177.93995	0.07673
3175.88037	0.07532
3173.82078	0.07390
3171.76119	0.07231
3169.70161	0.07078
3167.64202	0.06932
3165.58244	0.06797
3163.52285	0.06674
3161.46327	0.06535
3159.40368	0.06394
3157.34410	0.06282
3155.28451	0.06190
3153.22493	0.06095
3151.16534	0.05969
3149.10576	0.05851
3147.04617	0.05801
3144.98659	0.05777
3142.92700	0.05716
3140.86742	0.05623
3138.80783	0.05536
3136.74825	0.05471
3134.68866	0.05439
3132.62908	0.05444
3130.56949	0.05440
3128.50991	0.05394
3126.45032	0.05323
3124.39074	0.05278
3122.33115	0.05306
3120.27156	0.05372
3118.21198	0.05396
3116.15239	0.05382
3114.09281	0.05373
3112.03322	0.05394
3109.97364	0.05453
3107.91405	0.05509
3105.85447	0.05536
3103.79488	0.05576
3101.73530	0.05639
3099.67571	0.05693
3097.61613	0.05743
3095.55654	0.05819
3093.49696	0.05907
3091.43737	0.05958
3089.37779	0.05967
3087.31820	0.05985
3085.25862	0.06034
3083.19903	0.06078
3081.13945	0.06106
3079.07986	0.06121
3077.02028	0.06115
3074.96069	0.06119
3072.90111	0.06134
3070.84152	0.06132
3068.78194	0.06113
3066.72235	0.06069
3064.66276	0.05981
3062.60318	0.05862
3060.54359	0.05744
3058.48401	0.05626
3056.42442	0.05506
3054.36484	0.05414
3052.30525	0.05354
3050.24567	0.05267
3048.18608	0.05116
3046.12650	0.04950
3044.06691	0.04833
3042.00733	0.04753
3039.94774	0.04646
3037.88816	0.04512
3035.82857	0.04388
3033.76899	0.04276
3031.70940	0.04164
3029.64982	0.04059
3027.59023	0.03988
3025.53065	0.03932
3023.47106	0.03856
3021.41148	0.03771
3019.35189	0.03696
3017.29231	0.03641
3015.23272	0.03612
3013.17313	0.03591
3011.11355	0.03562
3009.05396	0.03535
3006.99438	0.03544
3004.93479	0.03596
3002.87521	0.03642
3000.81562	0.03674
2998.75604	0.03724
2996.69645	0.03805
2994.63687	0.03905
2992.57728	0.04004
2990.51770	0.04118
2988.45811	0.04262
2986.39853	0.04385
2984.33894	0.04478
2982.27936	0.04574
2980.21977	0.04643
2978.16019	0.04647
2976.10060	0.04628
2974.04102	0.04630
2971.98143	0.04604
2969.92185	0.04550
2967.86226	0.04496
2965.80268	0.04395
2963.74309	0.04285
2961.68351	0.04245
2959.62392	0.04228
2957.56433	0.04175
2955.50475	0.04123
2953.44516	0.04122
2951.38558	0.04159
2949.32599	0.04204
2947.26641	0.04262
2945.20682	0.04342
2943.14724	0.04432
2941.08765	0.04555
2939.02807	0.04697
2936.96848	0.04782
2934.90890	0.04822
2932.84931	0.04852
2930.78973	0.04839
2928.73014	0.04763
2926.67056	0.04648
2924.61097	0.04519
2922.55139	0.04370
2920.49180	0.04207
2918.43222	0.04076
2916.37263	0.03979
2914.31305	0.03868
2912.25346	0.03732
2910.19388	0.03596
2908.13429	0.03486
2906.07471	0.03413
2904.01512	0.03350
2901.95553	0.03273
2899.89595	0.03213
2897.83636	0.03186
2895.77678	0.03163
2893.71719	0.03125
2891.65761	0.03084
2889.59802	0.03086
2887.53844	0.03133
2885.47885	0.03175
2883.41927	0.03197
2881.35968	0.03215
2879.30010	0.03238
2877.24051	0.03257
2875.18093	0.03258
2873.12134	0.03224
2871.06176	0.03117
2869.00217	0.02969
2866.94259	0.02858
2864.88300	0.02783
2862.82342	0.02714
2860.76383	0.02644
2858.70425	0.02582
2856.64466	0.02527
2854.58508	0.02441
2852.52549	0.02317
2850.46590	0.02219
2848.40632	0.02182
2846.34673	0.02177
2844.28715	0.02173
2842.22756	0.02160
2840.16798	0.02126
2838.10839	0.02081
2836.04881	0.02055
2833.98922	0.02054
2831.92964	0.02059
2829.87005	0.02056
2827.81047	0.02048
2825.75088	0.02037
2823.69130	0.02024
2821.63171	0.02009
2819.57213	0.01987
2817.51254	0.01956
2815.45296	0.01928
2813.39337	0.01942
2811.33379	0.01993
2809.27420	0.02005
2807.21462	0.01968
2805.15503	0.01917
2803.09545	0.01874
2801.03586	0.01862
2798.97628	0.01875
2796.91669	0.01883
2794.85710	0.01870
2792.79752	0.01843
2790.73793	0.01817
2788.67835	0.01807
2786.61876	0.01799
2784.55918	0.01768
2782.49959	0.01734
2780.44001	0.01705
2778.38042	0.01678
2776.32084	0.01671
2774.26125	0.01659
2772.20167	0.01616
2770.14208	0.01582
2768.08250	0.01572
2766.02291	0.01555
2763.96333	0.01536
2761.90374	0.01538
2759.84416	0.01531
2757.78457	0.01489
2755.72499	0.01447
2753.66540	0.01445
2751.60582	0.01461
2749.54623	0.01469
2747.48665	0.01465
2745.42706	0.01424
2743.36747	0.01357
2741.30789	0.01329
2739.24830	0.01336
2737.18872	0.01333
2735.12913	0.01332
2733.06955	0.01329
2731.00996	0.01295
2728.95038	0.01242
2726.89079	0.01198
2724.83121	0.01186
2722.77162	0.01204
2720.71204	0.01215
2718.65245	0.01213
2716.59287	0.01207
2714.53328	0.01182
2712.47370	0.01140
2710.41411	0.01122
2708.35453	0.01124
2706.29494	0.01115
2704.23536	0.01101
2702.17577	0.01088
2700.11619	0.01074
2698.05660	0.01067
2695.99702	0.01057
2693.93743	0.01036
2691.87785	0.01013
2689.81826	0.01009
2687.75867	0.01027
2685.69909	0.01032
2683.63950	0.01013
2681.57992	0.01001
2679.52033	0.01005
2677.46075	0.01007
2675.40116	0.00995
2673.34158	0.00981
2671.28199	0.00985
2669.22241	0.00982
2667.16282	0.00967
2665.10324	0.00979
2663.04365	0.01000
2660.98407	0.00996
2658.92448	0.00978
2656.86490	0.00968
2654.80531	0.00965
2652.74573	0.00964
2650.68614	0.00962
2648.62656	0.00954
2646.56697	0.00941
2644.50739	0.00919
2642.44780	0.00892
2640.38822	0.00880
2638.32863	0.00884
2636.26904	0.00898
2634.20946	0.00925
2632.14987	0.00964
2630.09029	0.00990
2628.03070	0.00965
2625.97112	0.00910
2623.91153	0.00877
2621.85195	0.00879
2619.79236	0.00890
2617.73278	0.00883
2615.67319	0.00858
2613.61361	0.00846
2611.55402	0.00870
2609.49444	0.00898
2607.43485	0.00890
2605.37527	0.00868
2603.31568	0.00858
2601.25610	0.00851
2599.19651	0.00845
2597.13693	0.00838
2595.07734	0.00824
2593.01776	0.00797
2590.95817	0.00756
2588.89859	0.00743
2586.83900	0.00770
2584.77942	0.00798
2582.71983	0.00778
2580.66024	0.00725
2578.60066	0.00694
2576.54107	0.00676
2574.48149	0.00649
2572.42190	0.00637
2570.36232	0.00634
2568.30273	0.00611
2566.24315	0.00601
2564.18356	0.00629
2562.12398	0.00665
2560.06439	0.00662
2558.00481	0.00629
2555.94522	0.00615
2553.88564	0.00595
2551.82605	0.00577
2549.76647	0.00601
2547.70688	0.00614
2545.64730	0.00578
2543.58771	0.00546
2541.52813	0.00563
2539.46854	0.00583
2537.40896	0.00552
2535.34937	0.00527
2533.28979	0.00543
2531.23020	0.00544
2529.17062	0.00542
2527.11103	0.00559
2525.05144	0.00558
2522.99186	0.00540
2520.93227	0.00540
2518.87269	0.00566
2516.81310	0.00589
2514.75352	0.00586
2512.69393	0.00563
2510.63435	0.00530
2508.57476	0.00516
2506.51518	0.00537
2504.45559	0.00569
2502.39601	0.00569
2500.33642	0.00529
2498.27684	0.00494
2496.21725	0.00481
2494.15767	0.00488
2492.09808	0.00528
2490.03850	0.00575
2487.97891	0.00597
2485.91933	0.00593
2483.85974	0.00569
2481.80016	0.00530
2479.74057	0.00522
2477.68099	0.00546
2475.62140	0.00544
2473.56181	0.00510
2471.50223	0.00494
2469.44264	0.00516
2467.38306	0.00532
2465.32347	0.00523
2463.26389	0.00496
2461.20430	0.00470
2459.14472	0.00475
2457.08513	0.00484
2455.02555	0.00471
2452.96596	0.00455
2450.90638	0.00441
2448.84679	0.00438
2446.78721	0.00438
2444.72762	0.00425
2442.66804	0.00427
2440.60845	0.00462
2438.54887	0.00500
2436.48928	0.00515
2434.42970	0.00502
2432.37011	0.00483
2430.31053	0.00486
2428.25094	0.00495
2426.19136	0.00480
2424.13177	0.00437
2422.07219	0.00389
2420.01260	0.00374
2417.95301	0.00391
2415.89343	0.00416
2413.83384	0.00431
2411.77426	0.00422
2409.71467	0.00398
2407.65509	0.00388
2405.59550	0.00413
2403.53592	0.00418
2401.47633	0.00385
2399.41675	0.00367
2397.35716	0.00361
2395.29758	0.00367
2393.23799	0.00387
2391.17841	0.00395
2389.11882	0.00383
2387.05924	0.00375
2384.99965	0.00375
2382.94007	0.00366
2380.88048	0.00356
2378.82090	0.00357
2376.76131	0.00341
2374.70173	0.00341
2372.64214	0.00341
2370.58256	0.00340
2368.52297	0.00359
2366.46338	0.00350
2364.40380	0.00333
2362.34421	0.00311
2360.28463	0.00288
2358.22504	0.00354
2356.16546	0.00393
2354.10587	0.00407
2352.04629	0.00428
2349.98670	0.00352
2347.92712	0.00371
2345.86753	0.00410
2343.80795	0.00375
2341.74836	0.00395
2339.68878	0.00346
2337.62919	0.00324
2335.56961	0.00358
2333.51002	0.00317
2331.45044	0.00329
2329.39085	0.00333
2327.33127	0.00461
2325.27168	0.00573
2323.21210	0.00633
2321.15251	0.00592
2319.09293	0.00526
2317.03334	0.00513
2314.97376	0.00505
2312.91417	0.00490
2310.85458	0.00485
2308.79500	0.00471
2306.73541	0.00455
2304.67583	0.00450
2302.61624	0.00465
2300.55666	0.00473
2298.49707	0.00482
2296.43749	0.00502
2294.37790	0.00508
2292.31832	0.00467
2290.25873	0.00420
2288.19915	0.00399
2286.13956	0.00400
2284.07998	0.00409
2282.02039	0.00437
2279.96081	0.00467
2277.90122	0.00450
2275.84164	0.00374
2273.78205	0.00290
2271.72247	0.00293
2269.66288	0.00352
2267.60330	0.00372
2265.54371	0.00373
2263.48413	0.00381
2261.42454	0.00374
2259.36495	0.00367
2257.30537	0.00338
2255.24578	0.00295
2253.18620	0.00296
2251.12661	0.00297
2249.06703	0.00275
2247.00744	0.00309
2244.94786	0.00390
2242.88827	0.00452
2240.82869	0.00463
2238.76910	0.00409
2236.70952	0.00362
2234.64993	0.00396
2232.59035	0.00459
2230.53076	0.00455
2228.47118	0.00395
2226.41159	0.00338
2224.35201	0.00305
2222.29242	0.00279
2220.23284	0.00268
2218.17325	0.00298
2216.11367	0.00322
2214.05408	0.00306
2211.99450	0.00352
2209.93491	0.00457
2207.87533	0.00416
2205.81574	0.00271
2203.75615	0.00220
2201.69657	0.00246
2199.63698	0.00264
2197.57740	0.00287
2195.51781	0.00355
2193.45823	0.00384
2191.39864	0.00384
2189.33906	0.00490
2187.27947	0.00577
2185.21989	0.00476
2183.16030	0.00290
2181.10072	0.00197
2179.04113	0.00182
2176.98155	0.00126
2174.92196	0.00075
2172.86238	0.00087
2170.80279	0.00090
2168.74321	0.00122
2166.68362	0.00249
2164.62404	0.00357
2162.56445	0.00347
2160.50487	0.00252
2158.44528	0.00139
2156.38570	0.00128
2154.32611	0.00232
2152.26652	0.00298
2150.20694	0.00237
2148.14735	0.00127
2146.08777	0.00105
2144.02818	0.00196
2141.96860	0.00280
2139.90901	0.00271
2137.84943	0.00221
2135.78984	0.00204
2133.73026	0.00225
2131.67067	0.00261
2129.61109	0.00281
2127.55150	0.00294
2125.49192	0.00325
2123.43233	0.00360
2121.37275	0.00381
2119.31316	0.00386
2117.25358	0.00391
2115.19399	0.00417
2113.13441	0.00433
2111.07482	0.00427
2109.01524	0.00427
2106.95565	0.00433
2104.89607	0.00449
2102.83648	0.00483
2100.77690	0.00509
2098.71731	0.00524
2096.65772	0.00511
2094.59814	0.00460
2092.53855	0.00435
2090.47897	0.00428
2088.41938	0.00400
2086.35980	0.00405
2084.30021	0.00417
2082.24063	0.00369
2080.18104	0.00320
2078.12146	0.00311
2076.06187	0.00286
2074.00229	0.00251
2071.94270	0.00270
2069.88312	0.00302
2067.82353	0.00297
2065.76395	0.00265
2063.70436	0.00211
2061.64478	0.00174
2059.58519	0.00245
2057.52561	0.00395
2055.46602	0.00461
2053.40644	0.00402
2051.34685	0.00310
2049.28727	0.00273
2047.22768	0.00297
2045.16810	0.00341
2043.10851	0.00403
2041.04892	0.00466
2038.98934	0.00490
2036.92975	0.00440
2034.87017	0.00317
2032.81058	0.00197
2030.75100	0.00120
2028.69141	0.00044
2026.63183	-0.00048
2024.57224	-0.00052
2022.51266	0.00070
2020.45307	0.00211
2018.39349	0.00291
2016.33390	0.00272
2014.27432	0.00179
2012.21473	0.00118
2010.15515	0.00157
2008.09556	0.00186
2006.03598	0.00125
2003.97639	0.00093
2001.91681	0.00108
1999.85722	0.00103
1997.79764	0.00120
1995.73805	0.00181
1993.67847	0.00223
1991.61888	0.00201
1989.55929	0.00192
1987.49971	0.00252
1985.44012	0.00304
1983.38054	0.00308
1981.32095	0.00257
1979.26137	0.00143
1977.20178	0.00051
1975.14220	0.00052
1973.08261	0.00114
1971.02303	0.00171
1968.96344	0.00180
1966.90386	0.00169
1964.84427	0.00158
1962.78469	0.00140
1960.72510	0.00161
1958.66552	0.00215
1956.60593	0.00238
1954.54635	0.00224
1952.48676	0.00197
1950.42718	0.00174
1948.36759	0.00158
1946.30801	0.00157
1944.24842	0.00199
1942.18884	0.00215
1940.12925	0.00146
1938.06967	0.00112
1936.01008	0.00167
1933.95049	0.00234
1931.89091	0.00283
1929.83132	0.00306
1927.77174	0.00299
1925.71215	0.00288
1923.65257	0.00275
1921.59298	0.00254
1919.53340	0.00242
1917.47381	0.00238
1915.41423	0.00247
1913.35464	0.00296
1911.29506	0.00341
1909.23547	0.00326
1907.17589	0.00301
1905.11630	0.00306
1903.05672	0.00298
1900.99713	0.00278
1898.93755	0.00289
1896.87796	0.00318
1894.81838	0.00337
1892.75879	0.00346
1890.69921	0.00346
1888.63962	0.00352
1886.58004	0.00380
1884.52045	0.00392
1882.46086	0.00365
1880.40128	0.00334
1878.34169	0.00334
1876.28211	0.00353
1874.22252	0.00356
1872.16294	0.00350
1870.10335	0.00343
1868.04377	0.00326
1865.98418	0.00321
1863.92460	0.00331
1861.86501	0.00337
1859.80543	0.00355
1857.74584	0.00384
1855.68626	0.00384
1853.62667	0.00356
1851.56709	0.00344
1849.50750	0.00355
1847.44792	0.00355
1845.38833	0.00346
1843.32875	0.00356
1841.26916	0.00379
1839.20958	0.00403
1837.14999	0.00416
1835.09041	0.00410
1833.03082	0.00408
1830.97124	0.00431
1828.91165	0.00453
1826.85206	0.00447
1824.79248	0.00435
1822.73289	0.00443
1820.67331	0.00451
1818.61372	0.00452
1816.55414	0.00462
1814.49455	0.00489
1812.43497	0.00508
1810.37538	0.00502
1808.31580	0.00493
1806.25621	0.00497
1804.19663	0.00507
1802.13704	0.00511
1800.07746	0.00510
1798.01787	0.00521
1795.95829	0.00547
1793.89870	0.00573
1791.83912	0.00586
1789.77953	0.00592
1787.71995	0.00598
1785.66036	0.00604
1783.60078	0.00617
1781.54119	0.00634
1779.48161	0.00641
1777.42202	0.00639
1775.36243	0.00643
1773.30285	0.00658
1771.24326	0.00679
1769.18368	0.00701
1767.12409	0.00716
1765.06451	0.00725
1763.00492	0.00741
1760.94534	0.00766
1758.88575	0.00790
1756.82617	0.00805
1754.76658	0.00815
1752.70700	0.00843
1750.64741	0.00892
1748.58783	0.00930
1746.52824	0.00944
1744.46866	0.00942
1742.40907	0.00943
1740.34949	0.00965
1738.28990	0.01013
1736.23032	0.01067
1734.17073	0.01116
1732.11115	0.01152
1730.05156	0.01182
1727.99198	0.01223
1725.93239	0.01288
1723.87281	0.01380
1721.81322	0.01493
1719.75363	0.01631
1717.69405	0.01813
1715.63446	0.02045
1713.57488	0.02330
1711.51529	0.02699
1709.45571	0.03219
1707.39612	0.03997
1705.33654	0.05084
1703.27695	0.06274
1701.21737	0.07296
1699.15778	0.07948
1697.09820	0.08174
1695.03861	0.08195
1692.97903	0.08252
1690.91944	0.08420
1688.85986	0.08675
1686.80027	0.09000
1684.74069	0.09440
1682.68110	0.09960
1680.62152	0.10443
1678.56193	0.10912
1676.50235	0.11441
1674.44276	0.12019
1672.38318	0.12569
1670.32359	0.13113
1668.26401	0.13687
1666.20442	0.14247
1664.14483	0.14811
1662.08525	0.15409
1660.02566	0.15988
1657.96608	0.16505
1655.90649	0.16993
1653.84691	0.17529
1651.78732	0.18070
1649.72774	0.18477
1647.66815	0.18815
1645.60857	0.19182
1643.54898	0.19567
1641.48940	0.19966
1639.42981	0.20411
1637.37023	0.20972
1635.31064	0.21711
1633.25106	0.22513
1631.19147	0.23290
1629.13189	0.24110
1627.07230	0.24969
1625.01272	0.25773
1622.95313	0.26439
1620.89355	0.26833
1618.83396	0.26827
1616.77438	0.26370
1614.71479	0.25571
1612.65520	0.24579
1610.59562	0.23346
1608.53603	0.21823
1606.47645	0.20110
1604.41686	0.18362
1602.35728	0.16707
1600.29769	0.15244
1598.23811	0.14008
1596.17852	0.12963
1594.11894	0.12055
1592.05935	0.11261
1589.99977	0.10579
1587.94018	0.10034
1585.88060	0.09647
1583.82101	0.09407
1581.76143	0.09310
1579.70184	0.09343
1577.64226	0.09496
1575.58267	0.09760
1573.52309	0.10094
1571.46350	0.10487
1569.40392	0.10982
1567.34433	0.11547
1565.28475	0.12126
1563.22516	0.12686
1561.16558	0.13253
1559.10599	0.13919
1557.04640	0.14606
1554.98682	0.15195
1552.92723	0.15742
1550.86765	0.16292
1548.80806	0.16853
1546.74848	0.17418
1544.68889	0.17994
1542.62931	0.18612
1540.56972	0.19308
1538.51014	0.20023
1536.45055	0.20633
1534.39097	0.21208
1532.33138	0.21824
1530.27180	0.22413
1528.21221	0.22952
1526.15263	0.23459
1524.09304	0.23923
1522.03346	0.24375
1519.97387	0.24862
1517.91429	0.25372
1515.85470	0.25862
1513.79512	0.26239
1511.73553	0.26423
1509.67595	0.26388
1507.61636	0.26103
1505.55677	0.25630
1503.49719	0.25150
1501.43760	0.24651
1499.37802	0.24001
1497.31843	0.23156
1495.25885	0.22224
1493.19926	0.21315
1491.13968	0.20342
1489.08009	0.19237
1487.02051	0.18141
1484.96092	0.17160
1482.90134	0.16265
1480.84175	0.15434
1478.78217	0.14699
1476.72258	0.14066
1474.66300	0.13507
1472.60341	0.13014
1470.54383	0.12630
1468.48424	0.12368
1466.42466	0.12186
1464.36507	0.12087
1462.30549	0.12104
1460.24590	0.12252
1458.18632	0.12563
1456.12673	0.13037
1454.06715	0.13550
1452.00756	0.14035
1449.94797	0.14471
1447.88839	0.14799
1445.82880	0.14970
1443.76922	0.14998
1441.70963	0.14926
1439.65005	0.14747
1437.59046	0.14396
1435.53088	0.13879
1433.47129	0.13322
1431.41171	0.12780
1429.35212	0.12271
1427.29254	0.11865
1425.23295	0.11594
1423.17337	0.11437
1421.11378	0.11378
1419.05420	0.11411
1416.99461	0.11516
1414.93503	0.11654
1412.87544	0.11785
1410.81586	0.11888
1408.75627	0.11940
1406.69669	0.11920
1404.63710	0.11826
1402.57752	0.11680
1400.51793	0.11505
1398.45834	0.11321
1396.39876	0.11158
1394.33917	0.11039
1392.27959	0.10968
1390.22000	0.10928
1388.16042	0.10899
1386.10083	0.10876
1384.04125	0.10847
1381.98166	0.10799
1379.92208	0.10749
1377.86249	0.10716
1375.80291	0.10686
1373.74332	0.10653
1371.68374	0.10623
1369.62415	0.10567
1367.56457	0.10433
1365.50498	0.10200
1363.44540	0.09875
1361.38581	0.09513
1359.32623	0.09201
1357.26664	0.08960
1355.20706	0.08774
1353.14747	0.08646
1351.08789	0.08571
1349.02830	0.08547
1346.96872	0.08580
1344.90913	0.08657
1342.84954	0.08754
1340.78996	0.08859
1338.73037	0.08960
1336.67079	0.09036
1334.61120	0.09068
1332.55162	0.09043
1330.49203	0.08951
1328.43245	0.08802
1326.37286	0.08624
1324.31328	0.08440
1322.25369	0.08265
1320.19411	0.08117
1318.13452	0.08010
1316.07494	0.07936
1314.01535	0.07890
1311.95577	0.07862
1309.89618	0.07840
1307.83660	0.07831
1305.77701	0.07839
1303.71743	0.07840
1301.65784	0.07821
1299.59826	0.07799
1297.53867	0.07786
1295.47909	0.07789
1293.41950	0.07811
1291.35991	0.07853
1289.30033	0.07914
1287.24074	0.07991
1285.18116	0.08090
1283.12157	0.08215
1281.06199	0.08370
1279.00240	0.08575
1276.94282	0.08845
1274.88323	0.09164
1272.82365	0.09520
1270.76406	0.09898
1268.70448	0.10254
1266.64489	0.10554
1264.58531	0.10776
1262.52572	0.10919
1260.46614	0.11004
1258.40655	0.11054
1256.34697	0.11100
1254.28738	0.11167
1252.22780	0.11267
1250.16821	0.11411
1248.10863	0.11601
1246.04904	0.11831
1243.98946	0.12100
1241.92987	0.12406
1239.87029	0.12742
1237.81070	0.13095
1235.75111	0.13444
1233.69153	0.13757
1231.63194	0.14007
1229.57236	0.14161
1227.51277	0.14200
1225.45319	0.14133
1223.39360	0.13975
1221.33402	0.13735
1219.27443	0.13430
1217.21485	0.13067
1215.15526	0.12633
1213.09568	0.12131
1211.03609	0.11590
1208.97651	0.11037
1206.91692	0.10477
1204.85734	0.09913
1202.79775	0.09369
1200.73817	0.08872
1198.67858	0.08425
1196.61900	0.08036
1194.55941	0.07714
1192.49983	0.07446
1190.44024	0.07225
1188.38066	0.07047
1186.32107	0.06905
1184.26149	0.06807
1182.20190	0.06781
1180.14231	0.06854
1178.08273	0.07036
1176.02314	0.07312
1173.96356	0.07638
1171.90397	0.07953
1169.84439	0.08189
1167.78480	0.08322
1165.72522	0.08379
1163.66563	0.08383
1161.60605	0.08326
1159.54646	0.08196
1157.48688	0.08003
1155.42729	0.07759
1153.36771	0.07484
1151.30812	0.07197
1149.24854	0.06909
1147.18895	0.06630
1145.12937	0.06369
1143.06978	0.06123
1141.01020	0.05903
1138.95061	0.05721
1136.89103	0.05567
1134.83144	0.05432
1132.77186	0.05319
1130.71227	0.05221
1128.65268	0.05129
1126.59310	0.05045
1124.53351	0.04976
1122.47393	0.04927
1120.41434	0.04888
1118.35476	0.04843
1116.29517	0.04793
1114.23559	0.04758
1112.17600	0.04745
1110.11642	0.04751
1108.05683	0.04784
1105.99725	0.04836
1103.93766	0.04875
1101.87808	0.04870
1099.81849	0.04823
1097.75891	0.04768
1095.69932	0.04741
1093.63974	0.04754
1091.58015	0.04819
1089.52057	0.04937
1087.46098	0.05113
1085.40140	0.05340
1083.34181	0.05596
1081.28223	0.05866
1079.22264	0.06136
1077.16306	0.06393
1075.10347	0.06631
1073.04388	0.06845
1070.98430	0.07013
1068.92471	0.07116
1066.86513	0.07161
1064.80554	0.07172
1062.74596	0.07160
1060.68637	0.07120
1058.62679	0.07049
1056.56720	0.06959
1054.50762	0.06858
1052.44803	0.06743
1050.38845	0.06621
1048.32886	0.06517
1046.26928	0.06423
1044.20969	0.06322
1042.15011	0.06208
1040.09052	0.06079
1038.03094	0.05928
1035.97135	0.05760
1033.91177	0.05592
1031.85218	0.05440
1029.79260	0.05306
1027.73301	0.05178
1025.67343	0.05055
1023.61384	0.04972
1021.55425	0.04967
1019.49467	0.05052
1017.43508	0.05183
1015.37550	0.05298
1013.31591	0.05360
1011.25633	0.05367
1009.19674	0.05345
1007.13716	0.05339
1005.07757	0.05375
1003.01799	0.05441
1000.95840	0.05488
998.89882	0.05483
996.83923	0.05424
994.77965	0.05301
992.72006	0.05104
990.66048	0.04846
988.60089	0.04591
986.54131	0.04425
984.48172	0.04381
982.42214	0.04446
980.36255	0.04575
978.30297	0.04703
976.24338	0.04769
974.18380	0.04743
972.12421	0.04638
970.06463	0.04479
968.00504	0.04305
965.94545	0.04150
963.88587	0.04023
961.82628	0.03926
959.76670	0.03857
957.70711	0.03806
955.64753	0.03757
953.58794	0.03702
951.52836	0.03651
949.46877	0.03603
947.40919	0.03557
945.34960	0.03517
943.29002	0.03477
941.23043	0.03441
939.17085	0.03419
937.11126	0.03401
935.05168	0.03391
932.99209	0.03396
930.93251	0.03394
928.87292	0.03365
926.81334	0.03319
924.75375	0.03259
922.69417	0.03171
920.63458	0.03066
918.57500	0.02971
916.51541	0.02899
914.45582	0.02842
912.39624	0.02785
910.33665	0.02725
908.27707	0.02668
906.21748	0.02629
904.15790	0.02615
902.09831	0.02616
900.03873	0.02621
897.97914	0.02627
895.91956	0.02620
893.85997	0.02593
891.80039	0.02564
889.74080	0.02552
887.68122	0.02549
885.62163	0.02539
883.56205	0.02520
881.50246	0.02511
879.44288	0.02517
877.38329	0.02516
875.32371	0.02508
873.26412	0.02512
871.20454	0.02521
869.14495	0.02521
867.08537	0.02525
865.02578	0.02558
862.96620	0.02625
860.90661	0.02725
858.84702	0.02846
856.78744	0.02968
854.72785	0.03079
852.66827	0.03164
850.60868	0.03197
848.54910	0.03177
846.48951	0.03130
844.42993	0.03095
842.37034	0.03103
840.31076	0.03151
838.25117	0.03220
836.19159	0.03301
834.13200	0.03392
832.07242	0.03479
830.01283	0.03553
827.95325	0.03603
825.89366	0.03615
823.83408	0.03597
821.77449	0.03568
819.71491	0.03549
817.65532	0.03543
815.59574	0.03546
813.53615	0.03563
811.47657	0.03591
809.41698	0.03619
807.35740	0.03639
805.29781	0.03662
803.23822	0.03683
801.17864	0.03694
799.11905	0.03702
797.05947	0.03720
794.99988	0.03754
792.94030	0.03802
790.88071	0.03867
788.82113	0.03949
786.76154	0.04031
784.70196	0.04109
782.64237	0.04198
780.58279	0.04298
778.52320	0.04395
776.46362	0.04494
774.40403	0.04601
772.34445	0.04705
770.28486	0.04790
768.22528	0.04866
766.16569	0.04946
764.10611	0.05025
762.04652	0.05093
759.98694	0.05154
757.92735	0.05215
755.86777	0.05278
753.80818	0.05364
751.74859	0.05476
749.68901	0.05593
747.62942	0.05713
745.56984	0.05848
743.51025	0.06001
741.45067	0.06165
739.39108	0.06329
737.33150	0.06478
735.27191	0.06629
733.21233	0.06801
731.15274	0.06976
729.09316	0.07134
727.03357	0.07295
724.97399	0.07463
722.91440	0.07618
720.85482	0.07763
718.79523	0.07887
716.73565	0.08002
714.67606	0.08116
712.61648	0.08245
710.55689	0.08383
708.49731	0.08523
706.43772	0.08662
704.37814	0.08794
702.31855	0.08922
700.25897	0.09048
698.19938	0.09153
696.13979	0.09228
694.08021	0.09292
692.02062	0.09349
689.96104	0.09386
687.90145	0.09416
685.84187	0.09452
683.78228	0.09478
681.72270	0.09486
679.66311	0.09494
677.60353	0.09519
675.54394	0.09546
673.48436	0.09552
671.42477	0.09506
669.36519	0.09460
667.30560	0.09662
665.24602	0.09615
663.18643	0.09629
661.12685	0.09656
659.06726	0.09688
657.00768	0.09741
654.94809	0.09807
652.88851	0.09854
650.82892	0.09872
648.76934	0.09895
646.70975	0.09945
644.65016	0.10015
642.59058	0.10066
640.53099	0.10088
638.47141	0.10100
636.41182	0.10129
634.35224	0.10170
632.29265	0.10204
630.23307	0.10237
628.17348	0.10266
626.11390	0.10279
624.05431	0.10285
621.99473	0.10290
619.93514	0.10293
617.87556	0.10308
615.81597	0.10331
613.75639	0.10352
611.69680	0.10359
609.63722	0.10355
607.57763	0.10344
605.51805	0.10303
603.45846	0.10217
601.39888	0.10108
599.33929	0.10005
597.27971	0.09917
595.22012	0.09840
593.16054	0.09777
591.10095	0.09717
589.04136	0.09658
586.98178	0.09620
584.92219	0.09618
582.86261	0.09628
580.80302	0.09619
578.74344	0.09609
576.68385	0.09623
574.62427	0.09649
572.56468	0.09678
570.50510	0.09709
568.44551	0.09752
566.38593	0.09826
564.32634	0.09947
562.26676	0.10115
560.20717	0.10313
558.14759	0.10512
556.08800	0.10702
554.02842	0.10895
551.96883	0.11075
549.90925	0.11199
547.84966	0.11262
545.79008	0.11295
543.73049	0.11300
541.67091	0.11255
539.61132	0.11169
537.55173	0.11072
535.49215	0.10966
533.43256	0.10855
531.37298	0.10762
529.31339	0.10694
527.25381	0.10643
525.19422	0.10587
523.13464	0.10516
521.07505	0.10442
519.01547	0.10382
516.95588	0.10330
514.89630	0.10277
512.83671	0.10236
510.77713	0.10191
508.71754	0.10118
506.65796	0.10060
504.59837	0.10042
502.53879	0.10012
500.47920	0.09950
498.41962	0.09882
496.36003	0.09842
494.30045	0.09837
492.24086	0.09836
490.18128	0.09813
488.12169	0.09766
486.06211	0.09712
484.00252	0.09666
481.94293	0.09622
479.88335	0.09547
477.82376	0.09440
475.76418	0.09335
473.70459	0.09251
471.64501	0.09173
469.58542	0.09068
467.52584	0.08965
465.46625	0.08917
463.40667	0.08905
461.34708	0.08870
459.28750	0.08806
457.22791	0.08732
455.16833	0.08656
453.10874	0.08597
451.04916	0.08565
448.98957	0.08542
446.92999	0.08517
444.87040	0.08491
442.81082	0.08467
440.75123	0.08468
438.69165	0.08482
436.63206	0.08471
434.57248	0.08458
432.51289	0.08491
430.45330	0.08573
428.39372	0.08662
426.33413	0.08721
424.27455	0.08739
422.21496	0.08712
420.15538	0.08657
418.09579	0.08602
416.03621	0.08536
413.97662	0.08442
411.91704	0.08360
409.85745	0.08317
407.79787	0.08279
405.73828	0.08217
403.67870	0.08094
401.61911	0.07923
399.55953	0.07799
