3997.65486	0.00309
3995.59527	0.00329
3993.53569	0.00328
3991.47610	0.00352
3989.41652	0.00379
3987.35693	0.00350
3985.29735	0.00274
3983.23776	0.00206
3981.17817	0.00186
3979.11859	0.00211
3977.05900	0.00250
3974.99942	0.00263
3972.93983	0.00241
3970.88025	0.00226
3968.82066	0.00217
3966.76108	0.00191
3964.70149	0.00192
3962.64191	0.00237
3960.58232	0.00250
3958.52274	0.00206
3956.46315	0.00194
3954.40357	0.00247
3952.34398	0.00278
3950.28440	0.00229
3948.22481	0.00165
3946.16523	0.00187
3944.10564	0.00269
3942.04606	0.00323
3939.98647	0.00304
3937.92689	0.00232
3935.86730	0.00172
3933.80772	0.00170
3931.74813	0.00192
3929.68855	0.00201
3927.62896	0.00204
3925.56937	0.00215
3923.50979	0.00239
3921.45020	0.00248
3919.39062	0.00221
3917.33103	0.00197
3915.27145	0.00191
3913.21186	0.00189
3911.15228	0.00205
3909.09269	0.00243
3907.03311	0.00284
3904.97352	0.00279
3902.91394	0.00196
3900.85435	0.00106
3898.79477	0.00087
3896.73518	0.00131
3894.67560	0.00193
3892.61601	0.00239
3890.55643	0.00259
3888.49684	0.00252
3886.43726	0.00223
3884.37767	0.00220
3882.31809	0.00215
3880.25850	0.00157
3878.19892	0.00131
3876.13933	0.00179
3874.07974	0.00201
3872.02016	0.00168
3869.96057	0.00176
3867.90099	0.00235
3865.84140	0.00226
3863.78182	0.00129
3861.72223	0.00068
3859.66265	0.00089
3857.60306	0.00143
3855.54348	0.00206
3853.48389	0.00238
3851.42431	0.00206
3849.36472	0.00171
3847.30514	0.00149
3845.24555	0.00110
3843.18597	0.00077
3841.12638	0.00101
3839.06680	0.00160
3837.00721	0.00184
3834.94763	0.00163
3832.88804	0.00156
3830.82846	0.00196
3828.76887	0.00237
3826.70929	0.00210
3824.64970	0.00124
3822.59012	0.00075
3820.53053	0.00116
3818.47094	0.00176
3816.41136	0.00183
3814.35177	0.00158
3812.29219	0.00150
3810.23260	0.00157
3808.17302	0.00160
3806.11343	0.00181
3804.05385	0.00214
3801.99426	0.00199
3799.93468	0.00143
3797.87509	0.00108
3795.81551	0.00133
3793.75592	0.00207
3791.69634	0.00262
3789.63675	0.00268
3787.57717	0.00236
3785.51758	0.00161
3783.45800	0.00094
3781.39841	0.00112
3779.33883	0.00167
3777.27924	0.00152
3775.21966	0.00092
3773.16007	0.00067
3771.10049	0.00077
3769.04090	0.00110
3766.98132	0.00167
3764.92173	0.00232
3762.86214	0.00288
3760.80256	0.00304
3758.74297	0.00255
3756.68339	0.00187
3754.62380	0.00166
3752.56422	0.00189
3750.50463	0.00207
3748.44505	0.00165
3746.38546	0.00085
3744.32588	0.00071
3742.26629	0.00156
3740.20671	0.00218
3738.14712	0.00194
3736.08754	0.00154
3734.02795	0.00146
3731.96837	0.00149
3729.90878	0.00172
3727.84920	0.00205
3725.78961	0.00217
3723.73003	0.00179
3721.67044	0.00154
3719.61086	0.00141
3717.55127	0.00126
3715.49169	0.00119
3713.43210	0.00128
3711.37251	0.00154
3709.31293	0.00208
3707.25334	0.00285
3705.19376	0.00349
3703.13417	0.00354
3701.07459	0.00301
3699.01500	0.00262
3696.95542	0.00267
3694.89583	0.00278
3692.83625	0.00249
3690.77666	0.00207
3688.71708	0.00235
3686.65749	0.00344
3684.59791	0.00417
3682.53832	0.00410
3680.47874	0.00398
3678.41915	0.00445
3676.35957	0.00524
3674.29998	0.00592
3672.24040	0.00601
3670.18081	0.00532
3668.12123	0.00452
3666.06164	0.00431
3664.00206	0.00468
3661.94247	0.00543
3659.88289	0.00635
3657.82330	0.00721
3655.76371	0.00784
3653.70413	0.00815
3651.64454	0.00820
3649.58496	0.00820
3647.52537	0.00839
3645.46579	0.00888
3643.40620	0.00955
3641.34662	0.00997
3639.28703	0.01016
3637.22745	0.01068
3635.16786	0.01150
3633.10828	0.01204
3631.04869	0.01206
3628.98911	0.01199
3626.92952	0.01242
3624.86994	0.01310
3622.81035	0.01366
3620.75077	0.01397
3618.69118	0.01446
3616.63160	0.01550
3614.57201	0.01630
3612.51243	0.01648
3610.45284	0.01657
3608.39326	0.01724
3606.33367	0.01820
3604.27408	0.01878
3602.21450	0.01937
3600.15491	0.02051
3598.09533	0.02144
3596.03574	0.02129
3593.97616	0.02083
3591.91657	0.02100
3589.85699	0.02182
3587.79740	0.02291
3585.73782	0.02389
3583.67823	0.02455
3581.61865	0.02482
3579.55906	0.02493
3577.49948	0.02542
3575.43989	0.02665
3573.38031	0.02819
3571.32072	0.02940
3569.26114	0.03011
3567.20155	0.03029
3565.14197	0.03023
3563.08238	0.03052
3561.02280	0.03119
3558.96321	0.03192
3556.90363	0.03251
3554.84404	0.03287
3552.78446	0.03310
3550.72487	0.03341
3548.66528	0.03378
3546.60570	0.03460
3544.54611	0.03624
3542.48653	0.03778
3540.42694	0.03839
3538.36736	0.03846
3536.30777	0.03863
3534.24819	0.03901
3532.18860	0.03967
3530.12902	0.04060
3528.06943	0.04118
3526.00985	0.04127
3523.95026	0.04162
3521.89068	0.04236
3519.83109	0.04319
3517.77151	0.04408
3515.71192	0.04487
3513.65234	0.04559
3511.59275	0.04646
3509.53317	0.04710
3507.47358	0.04712
3505.41400	0.04699
3503.35441	0.04735
3501.29483	0.04813
3499.23524	0.04883
3497.17565	0.04924
3495.11607	0.04943
3493.05648	0.04968
3490.99690	0.05049
3488.93731	0.05156
3486.87773	0.05207
3484.81814	0.05183
3482.75856	0.05142
3480.69897	0.05145
3478.63939	0.05199
3476.57980	0.05279
3474.52022	0.05348
3472.46063	0.05383
3470.40105	0.05395
3468.34146	0.05409
3466.28188	0.05431
3464.22229	0.05459
3462.16271	0.05501
3460.10312	0.05542
3458.04354	0.05592
3455.98395	0.05651
3453.92437	0.05691
3451.86478	0.05701
3449.80520	0.05687
3447.74561	0.05679
3445.68603	0.05730
3443.62644	0.05838
3441.56685	0.05920
3439.50727	0.05953
3437.44768	0.05986
3435.38810	0.06032
3433.32851	0.06085
3431.26893	0.06194
3429.20934	0.06354
3427.14976	0.06474
3425.09017	0.06492
3423.03059	0.06465
3420.97100	0.06505
3418.91142	0.06611
3416.85183	0.06707
3414.79225	0.06771
3412.73266	0.06838
3410.67308	0.06896
3408.61349	0.06926
3406.55391	0.06970
3404.49432	0.07045
3402.43474	0.07134
3400.37515	0.07237
3398.31557	0.07323
3396.25598	0.07363
3394.19640	0.07388
3392.13681	0.07443
3390.07723	0.07567
3388.01764	0.07755
3385.95805	0.07891
3383.89847	0.07925
3381.83888	0.07946
3379.77930	0.08034
3377.71971	0.08160
3375.66013	0.08221
3373.60054	0.08248
3371.54096	0.08340
3369.48137	0.08467
3367.42179	0.08584
3365.36220	0.08682
3363.30262	0.08756
3361.24303	0.08860
3359.18345	0.09007
3357.12386	0.09133
3355.06428	0.09254
3353.00469	0.09423
3350.94511	0.09617
3348.88552	0.09799
3346.82594	0.09962
3344.76635	0.10114
3342.70677	0.10287
3340.64718	0.10490
3338.58760	0.10695
3336.52801	0.10916
3334.46842	0.11167
3332.40884	0.11420
3330.34925	0.11658
3328.28967	0.11894
3326.23008	0.12165
3324.17050	0.12508
3322.11091	0.12865
3320.05133	0.13156
3317.99174	0.13436
3315.93216	0.13765
3313.87257	0.14087
3311.81299	0.14390
3309.75340	0.14737
3307.69382	0.15108
3305.63423	0.15465
3303.57465	0.15832
3301.51506	0.16199
3299.45548	0.16558
3297.39589	0.16920
3295.33631	0.17264
3293.27672	0.17591
3291.21714	0.17919
3289.15755	0.18243
3287.09797	0.18547
3285.03838	0.18799
3282.97880	0.18977
3280.91921	0.19071
3278.85962	0.19079
3276.80004	0.19030
3274.74045	0.18966
3272.68087	0.18889
3270.62128	0.18765
3268.56170	0.18556
3266.50211	0.18263
3264.44253	0.17934
3262.38294	0.17590
3260.32336	0.17239
3258.26377	0.16906
3256.20419	0.16576
3254.14460	0.16218
3252.08502	0.15834
3250.02543	0.15456
3247.96585	0.15101
3245.90626	0.14752
3243.84668	0.14423
3241.78709	0.14142
3239.72751	0.13886
3237.66792	0.13602
3235.60834	0.13294
3233.54875	0.13024
3231.48917	0.12798
3229.42958	0.12563
3227.36999	0.12319
3225.31041	0.12081
3223.25082	0.11834
3221.19124	0.11557
3219.13165	0.11278
3217.07207	0.11035
3215.01248	0.10839
3212.95290	0.10682
3210.89331	0.10508
3208.83373	0.10272
3206.77414	0.10054
3204.71456	0.09900
3202.65497	0.09740
3200.59539	0.09513
3198.53580	0.09254
3196.47622	0.09026
3194.41663	0.08847
3192.35705	0.08687
3190.29746	0.08506
3188.23788	0.08294
3186.17829	0.08070
3184.11871	0.07861
3182.05912	0.07697
3179.99954	0.07546
3177.93995	0.07364
3175.88037	0.07177
3173.82078	0.07041
3171.76119	0.06957
3169.70161	0.06860
3167.64202	0.06691
3165.58244	0.06501
3163.52285	0.06357
3161.46327	0.06243
3159.40368	0.06140
3157.34410	0.06044
3155.28451	0.05957
3153.22493	0.05846
3151.16534	0.05677
3149.10576	0.05545
3147.04617	0.05521
3144.98659	0.05517
3142.92700	0.05483
3140.86742	0.05450
3138.80783	0.05414
3136.74825	0.05355
3134.68866	0.05295
3132.62908	0.05247
3130.56949	0.05192
3128.50991	0.05162
3126.45032	0.05182
3124.39074	0.05191
3122.33115	0.05176
3120.27156	0.05194
3118.21198	0.05227
3116.15239	0.05235
3114.09281	0.05246
3112.03322	0.05281
3109.97364	0.05322
3107.91405	0.05363
3105.85447	0.05403
3103.79488	0.05461
3101.73530	0.05523
3099.67571	0.05574
3097.61613	0.05647
3095.55654	0.05737
3093.49696	0.05779
3091.43737	0.05785
3089.37779	0.05810
3087.31820	0.05868
3085.25862	0.05934
3083.19903	0.05971
3081.13945	0.05986
3079.07986	0.06002
3077.02028	0.06002
3074.96069	0.05997
3072.90111	0.05997
3070.84152	0.05967
3068.78194	0.05917
3066.72235	0.05879
3064.66276	0.05814
3062.60318	0.05694
3060.54359	0.05570
3058.48401	0.05458
3056.42442	0.05337
3054.36484	0.05237
3052.30525	0.05179
3050.24567	0.05104
3048.18608	0.04962
3046.12650	0.04785
3044.06691	0.04636
3042.00733	0.04530
3039.94774	0.04433
3037.88816	0.04321
3035.82857	0.04212
3033.76899	0.04118
3031.70940	0.04025
3029.64982	0.03944
3027.59023	0.03898
3025.53065	0.03858
3023.47106	0.03782
3021.41148	0.03688
3019.35189	0.03617
3017.29231	0.03568
3015.23272	0.03516
3013.17313	0.03460
3011.11355	0.03417
3009.05396	0.03406
3006.99438	0.03435
3004.93479	0.03489
3002.87521	0.03544
3000.81562	0.03593
2998.75604	0.03644
2996.69645	0.03721
2994.63687	0.03813
2992.57728	0.03880
2990.51770	0.03949
2988.45811	0.04060
2986.39853	0.04181
2984.33894	0.04278
2982.27936	0.04350
2980.21977	0.04377
2978.16019	0.04365
2976.10060	0.04371
2974.04102	0.04399
2971.98143	0.04403
2969.92185	0.04363
2967.86226	0.04283
2965.80268	0.04176
2963.74309	0.04080
2961.68351	0.04022
2959.62392	0.03985
2957.56433	0.03950
2955.50475	0.03927
2953.44516	0.03936
2951.38558	0.03972
2949.32599	0.04023
2947.26641	0.04082
2945.20682	0.04161
2943.14724	0.04266
2941.08765	0.04367
2939.02807	0.04453
2936.96848	0.04528
2934.90890	0.04584
2932.84931	0.04594
2930.78973	0.04547
2928.73014	0.04471
2926.67056	0.04367
2924.61097	0.04219
2922.55139	0.04072
2920.49180	0.03957
2918.43222	0.03856
2916.37263	0.03756
2914.31305	0.03646
2912.25346	0.03530
2910.19388	0.03410
2908.13429	0.03294
2906.07471	0.03213
2904.01512	0.03174
2901.95553	0.03140
2899.89595	0.03075
2897.83636	0.03019
2895.77678	0.02987
2893.71719	0.02942
2891.65761	0.02910
2889.59802	0.02924
2887.53844	0.02957
2885.47885	0.02997
2883.41927	0.03033
2881.35968	0.03050
2879.30010	0.03060
2877.24051	0.03061
2875.18093	0.03058
2873.12134	0.03030
2871.06176	0.02918
2869.00217	0.02770
2866.94259	0.02663
2864.88300	0.02585
2862.82342	0.02507
2860.76383	0.02432
2858.70425	0.02397
2856.64466	0.02394
2854.58508	0.02347
2852.52549	0.02247
2850.46590	0.02155
2848.40632	0.02100
2846.34673	0.02067
2844.28715	0.02045
2842.22756	0.02017
2840.16798	0.01972
2838.10839	0.01922
2836.04881	0.01889
2833.98922	0.01879
2831.92964	0.01884
2829.87005	0.01901
2827.81047	0.01910
2825.75088	0.01901
2823.69130	0.01905
2821.63171	0.01912
2819.57213	0.01896
2817.51254	0.01863
2815.45296	0.01826
2813.39337	0.01806
2811.33379	0.01807
2809.27420	0.01827
2807.21462	0.01842
2805.15503	0.01811
2803.09545	0.01743
2801.03586	0.01696
2798.97628	0.01681
2796.91669	0.01682
2794.85710	0.01691
2792.79752	0.01683
2790.73793	0.01654
2788.67835	0.01620
2786.61876	0.01595
2784.55918	0.01591
2782.49959	0.01591
2780.44001	0.01570
2778.38042	0.01538
2776.32084	0.01511
2774.26125	0.01490
2772.20167	0.01464
2770.14208	0.01437
2768.08250	0.01433
2766.02291	0.01425
2763.96333	0.01387
2761.90374	0.01357
2759.84416	0.01353
2757.78457	0.01345
2755.72499	0.01320
2753.66540	0.01289
2751.60582	0.01275
2749.54623	0.01274
2747.48665	0.01266
2745.42706	0.01232
2743.36747	0.01189
2741.30789	0.01179
2739.24830	0.01189
2737.18872	0.01191
2735.12913	0.01186
2733.06955	0.01165
2731.00996	0.01121
2728.95038	0.01075
2726.89079	0.01040
2724.83121	0.01031
2722.77162	0.01050
2720.71204	0.01057
2718.65245	0.01046
2716.59287	0.01039
2714.53328	0.01019
2712.47370	0.00985
2710.41411	0.00976
2708.35453	0.00980
2706.29494	0.00966
2704.23536	0.00953
2702.17577	0.00949
2700.11619	0.00938
2698.05660	0.00925
2695.99702	0.00911
2693.93743	0.00890
2691.87785	0.00881
2689.81826	0.00878
2687.75867	0.00854
2685.69909	0.00835
2683.63950	0.00845
2681.57992	0.00864
2679.52033	0.00862
2677.46075	0.00848
2675.40116	0.00856
2673.34158	0.00881
2671.28199	0.00890
2669.22241	0.00874
2667.16282	0.00858
2665.10324	0.00871
2663.04365	0.00895
2660.98407	0.00894
2658.92448	0.00879
2656.86490	0.00876
2654.80531	0.00869
2652.74573	0.00858
2650.68614	0.00859
2648.62656	0.00861
2646.56697	0.00852
2644.50739	0.00836
2642.44780	0.00828
2640.38822	0.00818
2638.32863	0.00807
2636.26904	0.00824
2634.20946	0.00860
2632.14987	0.00894
2630.09029	0.00919
2628.03070	0.00912
2625.97112	0.00878
2623.91153	0.00851
2621.85195	0.00827
2619.79236	0.00793
2617.73278	0.00762
2615.67319	0.00729
2613.61361	0.00700
2611.55402	0.00702
2609.49444	0.00731
2607.43485	0.00761
2605.37527	0.00781
2603.31568	0.00803
2601.25610	0.00803
2599.19651	0.00760
2597.13693	0.00733
2595.07734	0.00742
2593.01776	0.00730
2590.95817	0.00685
2588.89859	0.00655
2586.83900	0.00650
2584.77942	0.00645
2582.71983	0.00630
2580.66024	0.00623
2578.60066	0.00635
2576.54107	0.00613
2574.48149	0.00561
2572.42190	0.00547
2570.36232	0.00549
2568.30273	0.00537
2566.24315	0.00520
2564.18356	0.00523
2562.12398	0.00581
2560.06439	0.00629
2558.00481	0.00603
2555.94522	0.00557
2553.88564	0.00529
2551.82605	0.00520
2549.76647	0.00539
2547.70688	0.00554
2545.64730	0.00520
2543.58771	0.00471
2541.52813	0.00477
2539.46854	0.00516
2537.40896	0.00503
2535.34937	0.00469
2533.28979	0.00471
2531.23020	0.00476
2529.17062	0.00491
2527.11103	0.00510
2525.05144	0.00492
2522.99186	0.00468
2520.93227	0.00478
2518.87269	0.00497
2516.81310	0.00504
2514.75352	0.00514
2512.69393	0.00517
2510.63435	0.00483
2508.57476	0.00435
2506.51518	0.00424
2504.45559	0.00455
2502.39601	0.00480
2500.33642	0.00467
2498.27684	0.00460
2496.21725	0.00463
2494.15767	0.00448
2492.09808	0.00445
2490.03850	0.00459
2487.97891	0.00464
2485.91933	0.00452
2483.85974	0.00437
2481.80016	0.00442
2479.74057	0.00470
2477.68099	0.00512
2475.62140	0.00534
2473.56181	0.00495
2471.50223	0.00417
2469.44264	0.00370
2467.38306	0.00376
2465.32347	0.00405
2463.26389	0.00431
2461.20430	0.00416
2459.14472	0.00366
2457.08513	0.00332
2455.02555	0.00326
2452.96596	0.00337
2450.90638	0.00342
2448.84679	0.00344
2446.78721	0.00351
2444.72762	0.00360
2442.66804	0.00366
2440.60845	0.00360
2438.54887	0.00373
2436.48928	0.00428
2434.42970	0.00469
2432.37011	0.00466
2430.31053	0.00437
2428.25094	0.00413
2426.19136	0.00383
2424.13177	0.00334
2422.07219	0.00309
2420.01260	0.00333
2417.95301	0.00360
2415.89343	0.00350
2413.83384	0.00322
2411.77426	0.00297
2409.71467	0.00278
2407.65509	0.00278
2405.59550	0.00290
2403.53592	0.00267
2401.47633	0.00229
2399.41675	0.00219
2397.35716	0.00228
2395.29758	0.00242
2393.23799	0.00253
2391.17841	0.00259
2389.11882	0.00259
2387.05924	0.00253
2384.99965	0.00251
2382.94007	0.00257
2380.88048	0.00250
2378.82090	0.00218
2376.76131	0.00165
2374.70173	0.00144
2372.64214	0.00151
2370.58256	0.00195
2368.52297	0.00217
2366.46338	0.00152
2364.40380	0.00169
2362.34421	0.00194
2360.28463	0.00270
2358.22504	0.00162
2356.16546	0.00251
2354.10587	0.00167
2352.04629	0.00067
2349.98670	0.00254
2347.92712	0.00430
2345.86753	0.00323
2343.80795	-0.00134
2341.74836	-0.00005
2339.68878	0.00798
2337.62919	0.01027
2335.56961	0.00360
2333.51002	-0.00426
2331.45044	-0.00617
2329.39085	-0.00209
2327.33127	0.00426
2325.27168	0.01043
2323.21210	0.01309
2321.15251	0.01259
2319.09293	0.01015
2317.03334	0.00848
2314.97376	0.00699
2312.91417	0.00640
2310.85458	0.00601
2308.79500	0.00585
2306.73541	0.00579
2304.67583	0.00529
2302.61624	0.00477
2300.55666	0.00424
2298.49707	0.00397
2296.43749	0.00394
2294.37790	0.00401
2292.31832	0.00388
2290.25873	0.00406
2288.19915	0.00433
2286.13956	0.00446
2284.07998	0.00418
2282.02039	0.00387
2279.96081	0.00376
2277.90122	0.00368
2275.84164	0.00357
2273.78205	0.00335
2271.72247	0.00307
2269.66288	0.00272
2267.60330	0.00243
2265.54371	0.00253
2263.48413	0.00303
2261.42454	0.00332
2259.36495	0.00316
2257.30537	0.00270
2255.24578	0.00221
2253.18620	0.00214
2251.12661	0.00271
2249.06703	0.00344
2247.00744	0.00402
2244.94786	0.00446
2242.88827	0.00436
2240.82869	0.00370
2238.76910	0.00304
2236.70952	0.00283
2234.64993	0.00343
2232.59035	0.00398
2230.53076	0.00332
2228.47118	0.00240
2226.41159	0.00210
2224.35201	0.00206
2222.29242	0.00186
2220.23284	0.00181
2218.17325	0.00187
2216.11367	0.00157
2214.05408	0.00139
2211.99450	0.00218
2209.93491	0.00327
2207.87533	0.00321
2205.81574	0.00245
2203.75615	0.00220
2201.69657	0.00244
2199.63698	0.00262
2197.57740	0.00250
2195.51781	0.00208
2193.45823	0.00156
2191.39864	0.00201
2189.33906	0.00370
2187.27947	0.00510
2185.21989	0.00498
2183.16030	0.00368
2181.10072	0.00236
2179.04113	0.00187
2176.98155	0.00203
2174.92196	0.00222
2172.86238	0.00227
2170.80279	0.00221
2168.74321	0.00208
2166.68362	0.00232
2164.62404	0.00331
2162.56445	0.00447
2160.50487	0.00434
2158.44528	0.00279
2156.38570	0.00180
2154.32611	0.00172
2152.26652	0.00187
2150.20694	0.00180
2148.14735	0.00094
2146.08777	-0.00017
2144.02818	-0.00056
2141.96860	-0.00020
2139.90901	0.00041
2137.84943	0.00092
2135.78984	0.00078
2133.73026	0.00023
2131.67067	0.00026
2129.61109	0.00078
2127.55150	0.00146
2125.49192	0.00218
2123.43233	0.00266
2121.37275	0.00292
2119.31316	0.00315
2117.25358	0.00342
2115.19399	0.00363
2113.13441	0.00350
2111.07482	0.00307
2109.01524	0.00275
2106.95565	0.00287
2104.89607	0.00316
2102.83648	0.00321
2100.77690	0.00331
2098.71731	0.00340
2096.65772	0.00301
2094.59814	0.00246
2092.53855	0.00251
2090.47897	0.00287
2088.41938	0.00314
2086.35980	0.00325
2084.30021	0.00304
2082.24063	0.00285
2080.18104	0.00287
2078.12146	0.00252
2076.06187	0.00177
2074.00229	0.00145
2071.94270	0.00189
2069.88312	0.00246
2067.82353	0.00249
2065.76395	0.00209
2063.70436	0.00180
2061.64478	0.00187
2059.58519	0.00222
2057.52561	0.00278
2055.46602	0.00346
2053.40644	0.00393
2051.34685	0.00402
2049.28727	0.00364
2047.22768	0.00312
2045.16810	0.00301
2043.10851	0.00363
2041.04892	0.00510
2038.98934	0.00635
2036.92975	0.00587
2034.87017	0.00389
2032.81058	0.00210
2030.75100	0.00150
2028.69141	0.00145
2026.63183	0.00086
2024.57224	-0.00020
2022.51266	-0.00057
2020.45307	0.00008
2018.39349	0.00090
2016.33390	0.00113
2014.27432	0.00100
2012.21473	0.00146
2010.15515	0.00237
2008.09556	0.00253
2006.03598	0.00169
2003.97639	0.00085
2001.91681	0.00078
1999.85722	0.00123
1997.79764	0.00154
1995.73805	0.00171
1993.67847	0.00210
1991.61888	0.00239
1989.55929	0.00254
1987.49971	0.00266
1985.44012	0.00237
1983.38054	0.00204
1981.32095	0.00218
1979.26137	0.00200
1977.20178	0.00101
1975.14220	0.00041
1973.08261	0.00104
1971.02303	0.00213
1968.96344	0.00241
1966.90386	0.00165
1964.84427	0.00086
1962.78469	0.00065
1960.72510	0.00122
1958.66552	0.00207
1956.60593	0.00221
1954.54635	0.00166
1952.48676	0.00117
1950.42718	0.00106
1948.36759	0.00118
1946.30801	0.00115
1944.24842	0.00098
1942.18884	0.00099
1940.12925	0.00110
1938.06967	0.00135
1936.01008	0.00173
1933.95049	0.00192
1931.89091	0.00190
1929.83132	0.00154
1927.77174	0.00117
1925.71215	0.00154
1923.65257	0.00227
1921.59298	0.00243
1919.53340	0.00204
1917.47381	0.00174
1915.41423	0.00169
1913.35464	0.00177
1911.29506	0.00197
1909.23547	0.00209
1907.17589	0.00208
1905.11630	0.00197
1903.05672	0.00182
1900.99713	0.00189
1898.93755	0.00206
1896.87796	0.00214
1894.81838	0.00233
1892.75879	0.00255
1890.69921	0.00249
1888.63962	0.00233
1886.58004	0.00234
1884.52045	0.00238
1882.46086	0.00227
1880.40128	0.00207
1878.34169	0.00199
1876.28211	0.00217
1874.22252	0.00254
1872.16294	0.00280
1870.10335	0.00270
1868.04377	0.00243
1865.98418	0.00232
1863.92460	0.00236
1861.86501	0.00238
1859.80543	0.00235
1857.74584	0.00250
1855.68626	0.00265
1853.62667	0.00252
1851.56709	0.00238
1849.50750	0.00238
1847.44792	0.00230
1845.38833	0.00221
1843.32875	0.00235
1841.26916	0.00259
1839.20958	0.00280
1837.14999	0.00290
1835.09041	0.00286
1833.03082	0.00288
1830.97124	0.00313
1828.91165	0.00337
1826.85206	0.00337
1824.79248	0.00331
1822.73289	0.00327
1820.67331	0.00313
1818.61372	0.00302
1816.55414	0.00321
1814.49455	0.00353
1812.43497	0.00365
1810.37538	0.00353
1808.31580	0.00341
1806.25621	0.00347
1804.19663	0.00367
1802.13704	0.00385
1800.07746	0.00393
1798.01787	0.00395
1795.95829	0.00398
1793.89870	0.00402
1791.83912	0.00412
1789.77953	0.00427
1787.71995	0.00437
1785.66036	0.00441
1783.60078	0.00453
1781.54119	0.00475
1779.48161	0.00499
1777.42202	0.00517
1775.36243	0.00525
1773.30285	0.00522
1771.24326	0.00518
1769.18368	0.00523
1767.12409	0.00533
1765.06451	0.00537
1763.00492	0.00539
1760.94534	0.00552
1758.88575	0.00580
1756.82617	0.00607
1754.76658	0.00621
1752.70700	0.00638
1750.64741	0.00667
1748.58783	0.00695
1746.52824	0.00711
1744.46866	0.00716
1742.40907	0.00724
1740.34949	0.00749
1738.28990	0.00788
1736.23032	0.00820
1734.17073	0.00855
1732.11115	0.00902
1730.05156	0.00943
1727.99198	0.00981
1725.93239	0.01037
1723.87281	0.01116
1721.81322	0.01200
1719.75363	0.01288
1717.69405	0.01420
1715.63446	0.01622
1713.57488	0.01874
1711.51529	0.02176
1709.45571	0.02577
1707.39612	0.03167
1705.33654	0.03969
1703.27695	0.04807
1701.21737	0.05507
1699.15778	0.05964
1697.09820	0.06137
1695.03861	0.06177
1692.97903	0.06236
1690.91944	0.06352
1688.85986	0.06514
1686.80027	0.06722
1684.74069	0.07031
1682.68110	0.07413
1680.62152	0.07751
1678.56193	0.08050
1676.50235	0.08383
1674.44276	0.08767
1672.38318	0.09143
1670.32359	0.09507
1668.26401	0.09888
1666.20442	0.10253
1664.14483	0.10610
1662.08525	0.10996
1660.02566	0.11369
1657.96608	0.11678
1655.90649	0.11962
1653.84691	0.12329
1651.78732	0.12734
1649.72774	0.13000
1647.66815	0.13196
1645.60857	0.13439
1643.54898	0.13698
1641.48940	0.13945
1639.42981	0.14204
1637.37023	0.14549
1635.31064	0.15036
1633.25106	0.15546
1631.19147	0.15998
1629.13189	0.16475
1627.07230	0.16994
1625.01272	0.17487
1622.95313	0.17895
1620.89355	0.18118
1618.83396	0.18091
1616.77438	0.17830
1614.71479	0.17369
1612.65520	0.16746
1610.59562	0.15955
1608.53603	0.14992
1606.47645	0.13918
1604.41686	0.12824
1602.35728	0.11782
1600.29769	0.10853
1598.23811	0.10062
1596.17852	0.09383
1594.11894	0.08788
1592.05935	0.08268
1589.99977	0.07823
1587.94018	0.07466
1585.88060	0.07222
1583.82101	0.07095
1581.76143	0.07054
1579.70184	0.07077
1577.64226	0.07183
1575.58267	0.07398
1573.52309	0.07662
1571.46350	0.07942
1569.40392	0.08281
1567.34433	0.08654
1565.28475	0.09015
1563.22516	0.09349
1561.16558	0.09692
1559.10599	0.10138
1557.04640	0.10609
1554.98682	0.10974
1552.92723	0.11289
1550.86765	0.11608
1548.80806	0.11932
1546.74848	0.12248
1544.68889	0.12566
1542.62931	0.12922
1540.56972	0.13357
1538.51014	0.13803
1536.45055	0.14146
1534.39097	0.14454
1532.33138	0.14795
1530.27180	0.15113
1528.21221	0.15396
1526.15263	0.15665
1524.09304	0.15913
1522.03346	0.16173
1519.97387	0.16459
1517.91429	0.16725
1515.85470	0.16946
1513.79512	0.17084
1511.73553	0.17108
1509.67595	0.17019
1507.61636	0.16829
1505.55677	0.16569
1503.49719	0.16269
1501.43760	0.15917
1499.37802	0.15484
1497.31843	0.14962
1495.25885	0.14387
1493.19926	0.13802
1491.13968	0.13183
1489.08009	0.12514
1487.02051	0.11863
1484.96092	0.11273
1482.90134	0.10730
1480.84175	0.10228
1478.78217	0.09788
1476.72258	0.09411
1474.66300	0.09087
1472.60341	0.08830
1470.54383	0.08644
1468.48424	0.08515
1466.42466	0.08440
1464.36507	0.08432
1462.30549	0.08481
1460.24590	0.08589
1458.18632	0.08814
1456.12673	0.09165
1454.06715	0.09509
1452.00756	0.09789
1449.94797	0.10030
1447.88839	0.10209
1445.82880	0.10288
1443.76922	0.10269
1441.70963	0.10183
1439.65005	0.10034
1437.59046	0.09800
1435.53088	0.09477
1433.47129	0.09117
1431.41171	0.08762
1429.35212	0.08447
1427.29254	0.08211
1425.23295	0.08056
1423.17337	0.07968
1421.11378	0.07947
1419.05420	0.08003
1416.99461	0.08101
1414.93503	0.08183
1412.87544	0.08242
1410.81586	0.08283
1408.75627	0.08297
1406.69669	0.08268
1404.63710	0.08192
1402.57752	0.08071
1400.51793	0.07929
1398.45834	0.07797
1396.39876	0.07693
1394.33917	0.07627
1392.27959	0.07588
1390.22000	0.07562
1388.16042	0.07549
1386.10083	0.07541
1384.04125	0.07513
1381.98166	0.07468
1379.92208	0.07429
1377.86249	0.07404
1375.80291	0.07390
1373.74332	0.07375
1371.68374	0.07345
1369.62415	0.07284
1367.56457	0.07176
1365.50498	0.07011
1363.44540	0.06793
1361.38581	0.06562
1359.32623	0.06363
1357.26664	0.06209
1355.20706	0.06093
1353.14747	0.06019
1351.08789	0.05984
1349.02830	0.05978
1346.96872	0.06002
1344.90913	0.06049
1342.84954	0.06102
1340.78996	0.06161
1338.73037	0.06229
1336.67079	0.06283
1334.61120	0.06303
1332.55162	0.06279
1330.49203	0.06209
1328.43245	0.06110
1326.37286	0.05999
1324.31328	0.05886
1322.25369	0.05769
1320.19411	0.05658
1318.13452	0.05580
1316.07494	0.05539
1314.01535	0.05519
1311.95577	0.05505
1309.89618	0.05484
1307.83660	0.05466
1305.77701	0.05461
1303.71743	0.05465
1301.65784	0.05471
1299.59826	0.05467
1297.53867	0.05456
1295.47909	0.05456
1293.41950	0.05472
1291.35991	0.05507
1289.30033	0.05561
1287.24074	0.05620
1285.18116	0.05684
1283.12157	0.05771
1281.06199	0.05887
1279.00240	0.06033
1276.94282	0.06210
1274.88323	0.06409
1272.82365	0.06624
1270.76406	0.06847
1268.70448	0.07059
1266.64489	0.07233
1264.58531	0.07353
1262.52572	0.07425
1260.46614	0.07464
1258.40655	0.07490
1256.34697	0.07522
1254.28738	0.07564
1252.22780	0.07625
1250.16821	0.07719
1248.10863	0.07837
1246.04904	0.07969
1243.98946	0.08117
1241.92987	0.08290
1239.87029	0.08489
1237.81070	0.08700
1235.75111	0.08890
1233.69153	0.09041
1231.63194	0.09146
1229.57236	0.09192
1227.51277	0.09176
1225.45319	0.09101
1223.39360	0.08976
1221.33402	0.08807
1219.27443	0.08595
1217.21485	0.08345
1215.15526	0.08059
1213.09568	0.07732
1211.03609	0.07376
1208.97651	0.07014
1206.91692	0.06653
1204.85734	0.06299
1202.79775	0.05969
1200.73817	0.05666
1198.67858	0.05390
1196.61900	0.05159
1194.55941	0.04977
1192.49983	0.04823
1190.44024	0.04688
1188.38066	0.04585
1186.32107	0.04512
1184.26149	0.04466
1182.20190	0.04470
1180.14231	0.04551
1178.08273	0.04696
1176.02314	0.04880
1173.96356	0.05086
1171.90397	0.05280
1169.84439	0.05412
1167.78480	0.05468
1165.72522	0.05476
1163.66563	0.05452
1161.60605	0.05388
1159.54646	0.05285
1157.48688	0.05150
1155.42729	0.04989
1153.36771	0.04807
1151.30812	0.04620
1149.24854	0.04443
1147.18895	0.04268
1145.12937	0.04095
1143.06978	0.03939
1141.01020	0.03813
1138.95061	0.03715
1136.89103	0.03631
1134.83144	0.03554
1132.77186	0.03483
1130.71227	0.03418
1128.65268	0.03362
1126.59310	0.03309
1124.53351	0.03259
1122.47393	0.03233
1120.41434	0.03219
1118.35476	0.03197
1116.29517	0.03183
1114.23559	0.03188
1112.17600	0.03199
1110.11642	0.03212
1108.05683	0.03238
1105.99725	0.03273
1103.93766	0.03295
1101.87808	0.03287
1099.81849	0.03260
1097.75891	0.03241
1095.69932	0.03243
1093.63974	0.03270
1091.58015	0.03327
1089.52057	0.03413
1087.46098	0.03525
1085.40140	0.03661
1083.34181	0.03811
1081.28223	0.03971
1079.22264	0.04134
1077.16306	0.04292
1075.10347	0.04438
1073.04388	0.04561
1070.98430	0.04655
1068.92471	0.04717
1066.86513	0.04742
1064.80554	0.04735
1062.74596	0.04703
1060.68637	0.04652
1058.62679	0.04589
1056.56720	0.04523
1054.50762	0.04460
1052.44803	0.04388
1050.38845	0.04311
1048.32886	0.04249
1046.26928	0.04195
1044.20969	0.04124
1042.15011	0.04034
1040.09052	0.03945
1038.03094	0.03854
1035.97135	0.03750
1033.91177	0.03646
1031.85218	0.03558
1029.79260	0.03478
1027.73301	0.03391
1025.67343	0.03300
1023.61384	0.03242
1021.55425	0.03249
1019.49467	0.03314
1017.43508	0.03401
1015.37550	0.03474
1013.31591	0.03518
1011.25633	0.03530
1009.19674	0.03520
1007.13716	0.03497
1005.07757	0.03489
1003.01799	0.03511
1000.95840	0.03533
998.89882	0.03521
996.83923	0.03470
994.77965	0.03383
992.72006	0.03262
990.66048	0.03101
988.60089	0.02940
986.54131	0.02841
984.48172	0.02821
982.42214	0.02854
980.36255	0.02919
978.30297	0.02989
976.24338	0.03018
974.18380	0.02985
972.12421	0.02906
970.06463	0.02808
968.00504	0.02705
965.94545	0.02612
963.88587	0.02536
961.82628	0.02480
959.76670	0.02443
957.70711	0.02420
955.64753	0.02392
953.58794	0.02354
951.52836	0.02322
949.46877	0.02306
947.40919	0.02287
945.34960	0.02258
943.29002	0.02226
941.23043	0.02202
939.17085	0.02193
937.11126	0.02198
935.05168	0.02208
932.99209	0.02207
930.93251	0.02195
928.87292	0.02170
926.81334	0.02134
924.75375	0.02085
922.69417	0.02016
920.63458	0.01949
918.57500	0.01903
916.51541	0.01861
914.45582	0.01814
912.39624	0.01773
910.33665	0.01741
908.27707	0.01715
906.21748	0.01699
904.15790	0.01695
902.09831	0.01698
900.03873	0.01704
897.97914	0.01703
895.91956	0.01689
893.85997	0.01667
891.80039	0.01650
889.74080	0.01641
887.68122	0.01639
885.62163	0.01640
883.56205	0.01633
881.50246	0.01620
879.44288	0.01618
877.38329	0.01627
875.32371	0.01631
873.26412	0.01630
871.20454	0.01627
869.14495	0.01622
867.08537	0.01629
865.02578	0.01651
862.96620	0.01690
860.90661	0.01748
858.84702	0.01820
856.78744	0.01900
854.72785	0.01976
852.66827	0.02020
850.60868	0.02027
848.54910	0.02015
846.48951	0.01993
844.42993	0.01981
842.37034	0.02002
840.31076	0.02043
838.25117	0.02082
836.19159	0.02127
834.13200	0.02185
832.07242	0.02236
830.01283	0.02263
827.95325	0.02276
825.89366	0.02276
823.83408	0.02255
821.77449	0.02229
819.71491	0.02213
817.65532	0.02209
815.59574	0.02221
813.53615	0.02245
811.47657	0.02267
809.41698	0.02290
807.35740	0.02311
805.29781	0.02315
803.23822	0.02308
801.17864	0.02308
799.11905	0.02314
797.05947	0.02332
794.99988	0.02362
792.94030	0.02396
790.88071	0.02432
788.82113	0.02480
786.76154	0.02528
784.70196	0.02561
782.64237	0.02597
780.58279	0.02661
778.52320	0.02734
776.46362	0.02787
774.40403	0.02832
772.34445	0.02887
770.28486	0.02948
768.22528	0.03004
766.16569	0.03051
764.10611	0.03082
762.04652	0.03101
759.98694	0.03132
757.92735	0.03177
755.86777	0.03228
753.80818	0.03284
751.74859	0.03340
749.68901	0.03396
747.62942	0.03452
745.56984	0.03509
743.51025	0.03583
741.45067	0.03676
739.39108	0.03765
737.33150	0.03838
735.27191	0.03916
733.21233	0.04012
731.15274	0.04105
729.09316	0.04187
727.03357	0.04271
724.97399	0.04360
722.91440	0.04441
720.85482	0.04511
718.79523	0.04567
716.73565	0.04626
714.67606	0.04689
712.61648	0.04759
710.55689	0.04826
708.49731	0.04883
706.43772	0.04935
704.37814	0.04984
702.31855	0.05042
700.25897	0.05109
698.19938	0.05151
696.13979	0.05170
694.08021	0.05205
692.02062	0.05240
689.96104	0.05238
687.90145	0.05236
685.84187	0.05257
683.78228	0.05252
681.72270	0.05240
679.66311	0.05271
677.60353	0.05305
675.54394	0.05302
673.48436	0.05294
671.42477	0.05233
669.36519	0.05111
667.30560	0.05328
665.24602	0.05330
663.18643	0.05312
661.12685	0.05301
659.06726	0.05280
657.00768	0.05290
654.94809	0.05323
652.88851	0.05339
650.82892	0.05355
648.76934	0.05370
646.70975	0.05381
644.65016	0.05408
642.59058	0.05422
640.53099	0.05422
638.47141	0.05428
636.41182	0.05444
634.35224	0.05471
632.29265	0.05492
630.23307	0.05489
628.17348	0.05476
626.11390	0.05473
624.05431	0.05475
621.99473	0.05472
619.93514	0.05466
617.87556	0.05464
615.81597	0.05478
613.75639	0.05498
611.69680	0.05492
609.63722	0.05461
607.57763	0.05432
605.51805	0.05413
603.45846	0.05391
601.39888	0.05349
599.33929	0.05289
597.27971	0.05227
595.22012	0.05186
593.16054	0.05171
591.10095	0.05160
589.04136	0.05138
586.98178	0.05103
584.92219	0.05066
582.86261	0.05049
580.80302	0.05053
578.74344	0.05076
576.68385	0.05094
574.62427	0.05085
572.56468	0.05073
570.50510	0.05078
568.44551	0.05099
566.38593	0.05148
564.32634	0.05206
562.26676	0.05260
560.20717	0.05339
558.14759	0.05433
556.08800	0.05509
554.02842	0.05581
551.96883	0.05648
549.90925	0.05666
547.84966	0.05650
545.79008	0.05644
543.73049	0.05640
541.67091	0.05618
539.61132	0.05581
537.55173	0.05531
535.49215	0.05475
533.43256	0.05427
531.37298	0.05391
529.31339	0.05367
527.25381	0.05346
525.19422	0.05311
523.13464	0.05256
521.07505	0.05193
519.01547	0.05153
516.95588	0.05147
514.89630	0.05139
512.83671	0.05121
510.77713	0.05104
508.71754	0.05075
506.65796	0.05034
504.59837	0.04995
502.53879	0.04954
500.47920	0.04911
498.41962	0.04883
496.36003	0.04872
494.30045	0.04865
492.24086	0.04863
490.18128	0.04856
488.12169	0.04838
486.06211	0.04822
484.00252	0.04804
481.94293	0.04775
479.88335	0.04744
477.82376	0.04697
475.76418	0.04640
473.70459	0.04593
471.64501	0.04556
469.58542	0.04526
467.52584	0.04498
465.46625	0.04460
463.40667	0.04420
461.34708	0.04384
459.28750	0.04357
457.22791	0.04345
455.16833	0.04337
453.10874	0.04326
451.04916	0.04317
448.98957	0.04300
446.92999	0.04269
444.87040	0.04237
442.81082	0.04227
440.75123	0.04228
438.69165	0.04211
436.63206	0.04181
434.57248	0.04160
432.51289	0.04176
430.45330	0.04240
428.39372	0.04311
426.33413	0.04340
424.27455	0.04313
422.21496	0.04245
420.15538	0.04181
418.09579	0.04156
416.03621	0.04142
413.97662	0.04132
411.91704	0.04141
409.85745	0.04139
407.79787	0.04102
405.73828	0.04063
403.67870	0.04026
401.61911	0.03949
399.55953	0.03850
