3997.65486	0.00409
3995.59527	0.00391
3993.53569	0.00303
3991.47610	0.00215
3989.41652	0.00199
3987.35693	0.00216
3985.29735	0.00253
3983.23776	0.00315
3981.17817	0.00332
3979.11859	0.00287
3977.05900	0.00286
3974.99942	0.00324
3972.93983	0.00312
3970.88025	0.00268
3968.82066	0.00244
3966.76108	0.00225
3964.70149	0.00223
3962.64191	0.00247
3960.58232	0.00246
3958.52274	0.00247
3956.46315	0.00238
3954.40357	0.00182
3952.34398	0.00145
3950.28440	0.00186
3948.22481	0.00234
3946.16523	0.00239
3944.10564	0.00318
3942.04606	0.00379
3939.98647	0.00351
3937.92689	0.00345
3935.86730	0.00334
3933.80772	0.00349
3931.74813	0.00320
3929.68855	0.00211
3927.62896	0.00196
3925.56937	0.00275
3923.50979	0.00273
3921.45020	0.00264
3919.39062	0.00347
3917.33103	0.00405
3915.27145	0.00320
3913.21186	0.00229
3911.15228	0.00197
3909.09269	0.00137
3907.03311	0.00128
3904.97352	0.00209
3902.91394	0.00226
3900.85435	0.00232
3898.79477	0.00221
3896.73518	0.00109
3894.67560	0.00095
3892.61601	0.00217
3890.55643	0.00159
3888.49684	0.00052
3886.43726	0.00213
3884.37767	0.00253
3882.31809	0.00287
3880.25850	0.00358
3878.19892	0.00162
3876.13933	0.00096
3874.07974	0.00182
3872.02016	0.00272
3869.96057	0.00319
3867.90099	0.00093
3865.84140	0.00042
3863.78182	0.00142
3861.72223	0.00097
3859.66265	-0.00044
3857.60306	-0.00060
3855.54348	0.00325
3853.48389	0.00563
3851.42431	0.00127
3849.36472	-0.00129
3847.30514	0.00015
3845.24555	0.00208
3843.18597	0.00218
3841.12638	0.00118
3839.06680	0.00141
3837.00721	0.00113
3834.94763	0.00004
3832.88804	0.00037
3830.82846	0.00082
3828.76887	0.00133
3826.70929	0.00202
3824.64970	0.00216
3822.59012	0.00404
3820.53053	0.00362
3818.47094	0.00112
3816.41136	0.00149
3814.35177	0.00025
3812.29219	-0.00140
3810.23260	-0.00088
3808.17302	0.00074
3806.11343	0.00031
3804.05385	-0.00016
3801.99426	0.00232
3799.93468	0.00222
3797.87509	0.00211
3795.81551	0.00308
3793.75592	0.00251
3791.69634	0.00208
3789.63675	0.00219
3787.57717	0.00264
3785.51758	0.00299
3783.45800	0.00234
3781.39841	0.00204
3779.33883	0.00227
3777.27924	0.00163
3775.21966	0.00119
3773.16007	0.00154
3771.10049	0.00273
3769.04090	0.00284
3766.98132	0.00190
3764.92173	0.00114
3762.86214	0.00082
3760.80256	0.00251
3758.74297	0.00366
3756.68339	0.00237
3754.62380	0.00159
3752.56422	0.00316
3750.50463	0.00334
3748.44505	0.00025
3746.38546	0.00117
3744.32588	0.00419
3742.26629	0.00089
3740.20671	-0.00169
3738.14712	-0.00039
3736.08754	0.00152
3734.02795	0.00204
3731.96837	0.00195
3729.90878	0.00118
3727.84920	0.00149
3725.78961	0.00235
3723.73003	0.00256
3721.67044	0.00269
3719.61086	0.00236
3717.55127	0.00122
3715.49169	0.00031
3713.43210	0.00151
3711.37251	0.00242
3709.31293	0.00120
3707.25334	0.00032
3705.19376	0.00114
3703.13417	0.00303
3701.07459	0.00349
3699.01500	0.00214
3696.95542	0.00125
3694.89583	0.00079
3692.83625	0.00120
3690.77666	0.00302
3688.71708	0.00419
3686.65749	0.00253
3684.59791	0.00124
3682.53832	0.00141
3680.47874	0.00123
3678.41915	0.00204
3676.35957	0.00482
3674.29998	0.00407
3672.24040	0.00367
3670.18081	0.00674
3668.12123	0.00650
3666.06164	0.00515
3664.00206	0.00552
3661.94247	0.00595
3659.88289	0.00614
3657.82330	0.00732
3655.76371	0.00723
3653.70413	0.00558
3651.64454	0.00703
3649.58496	0.00930
3647.52537	0.00856
3645.46579	0.00734
3643.40620	0.00815
3641.34662	0.00966
3639.28703	0.01024
3637.22745	0.01009
3635.16786	0.00971
3633.10828	0.00933
3631.04869	0.01125
3628.98911	0.01428
3626.92952	0.01292
3624.86994	0.01109
3622.81035	0.01218
3620.75077	0.01504
3618.69118	0.01639
3616.63160	0.01542
3614.57201	0.01542
3612.51243	0.01601
3610.45284	0.01650
3608.39326	0.01784
3606.33367	0.01882
3604.27408	0.01930
3602.21450	0.01953
3600.15491	0.01943
3598.09533	0.01977
3596.03574	0.02084
3593.97616	0.02103
3591.91657	0.02042
3589.85699	0.02156
3587.79740	0.02360
3585.73782	0.02385
3583.67823	0.02398
3581.61865	0.02492
3579.55906	0.02545
3577.49948	0.02586
3575.43989	0.02684
3573.38031	0.02762
3571.32072	0.02775
3569.26114	0.02860
3567.20155	0.02973
3565.14197	0.02972
3563.08238	0.03020
3561.02280	0.03149
3558.96321	0.03229
3556.90363	0.03270
3554.84404	0.03364
3552.78446	0.03502
3550.72487	0.03559
3548.66528	0.03565
3546.60570	0.03588
3544.54611	0.03605
3542.48653	0.03670
3540.42694	0.03793
3538.36736	0.03922
3536.30777	0.04020
3534.24819	0.04055
3532.18860	0.04049
3530.12902	0.04056
3528.06943	0.04117
3526.00985	0.04222
3523.95026	0.04334
3521.89068	0.04415
3519.83109	0.04459
3517.77151	0.04474
3515.71192	0.04517
3513.65234	0.04646
3511.59275	0.04780
3509.53317	0.04818
3507.47358	0.04775
3505.41400	0.04777
3503.35441	0.04811
3501.29483	0.04836
3499.23524	0.04947
3497.17565	0.05083
3495.11607	0.05121
3493.05648	0.05117
3490.99690	0.05148
3488.93731	0.05179
3486.87773	0.05188
3484.81814	0.05225
3482.75856	0.05292
3480.69897	0.05333
3478.63939	0.05384
3476.57980	0.05451
3474.52022	0.05451
3472.46063	0.05402
3470.40105	0.05423
3468.34146	0.05554
3466.28188	0.05682
3464.22229	0.05738
3462.16271	0.05765
3460.10312	0.05767
3458.04354	0.05770
3455.98395	0.05821
3453.92437	0.05876
3451.86478	0.05880
3449.80520	0.05909
3447.74561	0.06005
3445.68603	0.06048
3443.62644	0.06060
3441.56685	0.06096
3439.50727	0.06121
3437.44768	0.06185
3435.38810	0.06283
3433.32851	0.06348
3431.26893	0.06378
3429.20934	0.06425
3427.14976	0.06515
3425.09017	0.06633
3423.03059	0.06743
3420.97100	0.06810
3418.91142	0.06855
3416.85183	0.06933
3414.79225	0.07044
3412.73266	0.07170
3410.67308	0.07291
3408.61349	0.07377
3406.55391	0.07448
3404.49432	0.07547
3402.43474	0.07665
3400.37515	0.07758
3398.31557	0.07812
3396.25598	0.07830
3394.19640	0.07863
3392.13681	0.07971
3390.07723	0.08122
3388.01764	0.08268
3385.95805	0.08422
3383.89847	0.08562
3381.83888	0.08619
3379.77930	0.08643
3377.71971	0.08725
3375.66013	0.08855
3373.60054	0.08978
3371.54096	0.09094
3369.48137	0.09217
3367.42179	0.09319
3365.36220	0.09426
3363.30262	0.09564
3361.24303	0.09685
3359.18345	0.09776
3357.12386	0.09879
3355.06428	0.09998
3353.00469	0.10131
3350.94511	0.10263
3348.88552	0.10375
3346.82594	0.10532
3344.76635	0.10731
3342.70677	0.10873
3340.64718	0.10961
3338.58760	0.11077
3336.52801	0.11239
3334.46842	0.11399
3332.40884	0.11515
3330.34925	0.11610
3328.28967	0.11730
3326.23008	0.11873
3324.17050	0.12020
3322.11091	0.12137
3320.05133	0.12200
3317.99174	0.12266
3315.93216	0.12404
3313.87257	0.12598
3311.81299	0.12773
3309.75340	0.12911
3307.69382	0.13033
3305.63423	0.13125
3303.57465	0.13187
3301.51506	0.13239
3299.45548	0.13292
3297.39589	0.13369
3295.33631	0.13474
3293.27672	0.13579
3291.21714	0.13652
3289.15755	0.13686
3287.09797	0.13714
3285.03838	0.13755
3282.97880	0.13795
3280.91921	0.13808
3278.85962	0.13805
3276.80004	0.13784
3274.74045	0.13724
3272.68087	0.13665
3270.62128	0.13624
3268.56170	0.13544
3266.50211	0.13430
3264.44253	0.13339
3262.38294	0.13266
3260.32336	0.13166
3258.26377	0.13042
3256.20419	0.12912
3254.14460	0.12756
3252.08502	0.12570
3250.02543	0.12397
3247.96585	0.12270
3245.90626	0.12179
3243.84668	0.12072
3241.78709	0.11913
3239.72751	0.11735
3237.66792	0.11583
3235.60834	0.11448
3233.54875	0.11293
3231.48917	0.11135
3229.42958	0.11009
3227.36999	0.10915
3225.31041	0.10818
3223.25082	0.10682
3221.19124	0.10519
3219.13165	0.10351
3217.07207	0.10197
3215.01248	0.10097
3212.95290	0.10035
3210.89331	0.09955
3208.83373	0.09811
3206.77414	0.09619
3204.71456	0.09440
3202.65497	0.09299
3200.59539	0.09175
3198.53580	0.09028
3196.47622	0.08861
3194.41663	0.08699
3192.35705	0.08532
3190.29746	0.08361
3188.23788	0.08205
3186.17829	0.08061
3184.11871	0.07930
3182.05912	0.07797
3179.99954	0.07648
3177.93995	0.07509
3175.88037	0.07372
3173.82078	0.07209
3171.76119	0.07031
3169.70161	0.06878
3167.64202	0.06766
3165.58244	0.06659
3163.52285	0.06518
3161.46327	0.06353
3159.40368	0.06207
3157.34410	0.06102
3155.28451	0.06014
3153.22493	0.05926
3151.16534	0.05852
3149.10576	0.05795
3147.04617	0.05734
3144.98659	0.05657
3142.92700	0.05562
3140.86742	0.05477
3138.80783	0.05422
3136.74825	0.05361
3134.68866	0.05309
3132.62908	0.05281
3130.56949	0.05225
3128.50991	0.05164
3126.45032	0.05130
3124.39074	0.05114
3122.33115	0.05121
3120.27156	0.05133
3118.21198	0.05138
3116.15239	0.05164
3114.09281	0.05198
3112.03322	0.05212
3109.97364	0.05225
3107.91405	0.05248
3105.85447	0.05262
3103.79488	0.05284
3101.73530	0.05342
3099.67571	0.05404
3097.61613	0.05448
3095.55654	0.05507
3093.49696	0.05590
3091.43737	0.05672
3089.37779	0.05751
3087.31820	0.05808
3085.25862	0.05814
3083.19903	0.05812
3081.13945	0.05845
3079.07986	0.05884
3077.02028	0.05907
3074.96069	0.05915
3072.90111	0.05905
3070.84152	0.05892
3068.78194	0.05889
3066.72235	0.05888
3064.66276	0.05864
3062.60318	0.05810
3060.54359	0.05751
3058.48401	0.05688
3056.42442	0.05627
3054.36484	0.05565
3052.30525	0.05473
3050.24567	0.05366
3048.18608	0.05270
3046.12650	0.05171
3044.06691	0.05065
3042.00733	0.04954
3039.94774	0.04841
3037.88816	0.04753
3035.82857	0.04667
3033.76899	0.04536
3031.70940	0.04411
3029.64982	0.04343
3027.59023	0.04287
3025.53065	0.04195
3023.47106	0.04100
3021.41148	0.04036
3019.35189	0.03979
3017.29231	0.03916
3015.23272	0.03873
3013.17313	0.03837
3011.11355	0.03785
3009.05396	0.03726
3006.99438	0.03707
3004.93479	0.03724
3002.87521	0.03728
3000.81562	0.03741
2998.75604	0.03790
2996.69645	0.03845
2994.63687	0.03894
2992.57728	0.03963
2990.51770	0.04048
2988.45811	0.04107
2986.39853	0.04145
2984.33894	0.04183
2982.27936	0.04223
2980.21977	0.04246
2978.16019	0.04238
2976.10060	0.04217
2974.04102	0.04190
2971.98143	0.04145
2969.92185	0.04105
2967.86226	0.04073
2965.80268	0.04040
2963.74309	0.04022
2961.68351	0.04022
2959.62392	0.04042
2957.56433	0.04076
2955.50475	0.04105
2953.44516	0.04117
2951.38558	0.04141
2949.32599	0.04221
2947.26641	0.04337
2945.20682	0.04457
2943.14724	0.04589
2941.08765	0.04722
2939.02807	0.04822
2936.96848	0.04864
2934.90890	0.04839
2932.84931	0.04767
2930.78973	0.04678
2928.73014	0.04567
2926.67056	0.04449
2924.61097	0.04339
2922.55139	0.04205
2920.49180	0.04052
2918.43222	0.03916
2916.37263	0.03800
2914.31305	0.03682
2912.25346	0.03556
2910.19388	0.03439
2908.13429	0.03338
2906.07471	0.03247
2904.01512	0.03176
2901.95553	0.03118
2899.89595	0.03069
2897.83636	0.03025
2895.77678	0.02981
2893.71719	0.02964
2891.65761	0.02966
2889.59802	0.02943
2887.53844	0.02910
2885.47885	0.02900
2883.41927	0.02899
2881.35968	0.02900
2879.30010	0.02885
2877.24051	0.02846
2875.18093	0.02816
2873.12134	0.02800
2871.06176	0.02763
2869.00217	0.02687
2866.94259	0.02567
2864.88300	0.02451
2862.82342	0.02391
2860.76383	0.02368
2858.70425	0.02344
2856.64466	0.02310
2854.58508	0.02271
2852.52549	0.02230
2850.46590	0.02193
2848.40632	0.02162
2846.34673	0.02129
2844.28715	0.02108
2842.22756	0.02117
2840.16798	0.02118
2838.10839	0.02102
2836.04881	0.02102
2833.98922	0.02095
2831.92964	0.02081
2829.87005	0.02082
2827.81047	0.02082
2825.75088	0.02066
2823.69130	0.02028
2821.63171	0.01992
2819.57213	0.01980
2817.51254	0.01966
2815.45296	0.01940
2813.39337	0.01931
2811.33379	0.01920
2809.27420	0.01896
2807.21462	0.01878
2805.15503	0.01860
2803.09545	0.01842
2801.03586	0.01804
2798.97628	0.01749
2796.91669	0.01718
2794.85710	0.01705
2792.79752	0.01683
2790.73793	0.01651
2788.67835	0.01617
2786.61876	0.01581
2784.55918	0.01543
2782.49959	0.01513
2780.44001	0.01496
2778.38042	0.01489
2776.32084	0.01496
2774.26125	0.01496
2772.20167	0.01482
2770.14208	0.01465
2768.08250	0.01442
2766.02291	0.01419
2763.96333	0.01396
2761.90374	0.01382
2759.84416	0.01369
2757.78457	0.01345
2755.72499	0.01322
2753.66540	0.01289
2751.60582	0.01233
2749.54623	0.01206
2747.48665	0.01225
2745.42706	0.01247
2743.36747	0.01246
2741.30789	0.01230
2739.24830	0.01199
2737.18872	0.01158
2735.12913	0.01125
2733.06955	0.01108
2731.00996	0.01086
2728.95038	0.01072
2726.89079	0.01082
2724.83121	0.01085
2722.77162	0.01077
2720.71204	0.01067
2718.65245	0.01038
2716.59287	0.01004
2714.53328	0.00993
2712.47370	0.01000
2710.41411	0.01013
2708.35453	0.01019
2706.29494	0.01001
2704.23536	0.00970
2702.17577	0.00959
2700.11619	0.00971
2698.05660	0.00982
2695.99702	0.00962
2693.93743	0.00929
2691.87785	0.00917
2689.81826	0.00918
2687.75867	0.00912
2685.69909	0.00909
2683.63950	0.00915
2681.57992	0.00922
2679.52033	0.00918
2677.46075	0.00900
2675.40116	0.00879
2673.34158	0.00863
2671.28199	0.00858
2669.22241	0.00845
2667.16282	0.00821
2665.10324	0.00824
2663.04365	0.00860
2660.98407	0.00882
2658.92448	0.00888
2656.86490	0.00910
2654.80531	0.00917
2652.74573	0.00891
2650.68614	0.00875
2648.62656	0.00868
2646.56697	0.00851
2644.50739	0.00845
2642.44780	0.00863
2640.38822	0.00870
2638.32863	0.00845
2636.26904	0.00820
2634.20946	0.00828
2632.14987	0.00846
2630.09029	0.00848
2628.03070	0.00842
2625.97112	0.00838
2623.91153	0.00829
2621.85195	0.00811
2619.79236	0.00781
2617.73278	0.00755
2615.67319	0.00763
2613.61361	0.00780
2611.55402	0.00767
2609.49444	0.00755
2607.43485	0.00755
2605.37527	0.00750
2603.31568	0.00724
2601.25610	0.00693
2599.19651	0.00695
2597.13693	0.00719
2595.07734	0.00755
2593.01776	0.00781
2590.95817	0.00765
2588.89859	0.00729
2586.83900	0.00707
2584.77942	0.00696
2582.71983	0.00673
2580.66024	0.00636
2578.60066	0.00619
2576.54107	0.00641
2574.48149	0.00676
2572.42190	0.00668
2570.36232	0.00619
2568.30273	0.00575
2566.24315	0.00549
2564.18356	0.00558
2562.12398	0.00595
2560.06439	0.00603
2558.00481	0.00576
2555.94522	0.00561
2553.88564	0.00582
2551.82605	0.00624
2549.76647	0.00656
2547.70688	0.00654
2545.64730	0.00641
2543.58771	0.00622
2541.52813	0.00586
2539.46854	0.00550
2537.40896	0.00523
2535.34937	0.00523
2533.28979	0.00542
2531.23020	0.00555
2529.17062	0.00545
2527.11103	0.00511
2525.05144	0.00494
2522.99186	0.00500
2520.93227	0.00495
2518.87269	0.00498
2516.81310	0.00517
2514.75352	0.00512
2512.69393	0.00505
2510.63435	0.00536
2508.57476	0.00568
2506.51518	0.00579
2504.45559	0.00569
2502.39601	0.00535
2500.33642	0.00514
2498.27684	0.00517
2496.21725	0.00505
2494.15767	0.00488
2492.09808	0.00493
2490.03850	0.00495
2487.97891	0.00500
2485.91933	0.00543
2483.85974	0.00578
2481.80016	0.00578
2479.74057	0.00569
2477.68099	0.00562
2475.62140	0.00562
2473.56181	0.00553
2471.50223	0.00517
2469.44264	0.00479
2467.38306	0.00463
2465.32347	0.00439
2463.26389	0.00407
2461.20430	0.00405
2459.14472	0.00408
2457.08513	0.00394
2455.02555	0.00412
2452.96596	0.00458
2450.90638	0.00460
2448.84679	0.00418
2446.78721	0.00385
2444.72762	0.00373
2442.66804	0.00388
2440.60845	0.00421
2438.54887	0.00403
2436.48928	0.00358
2434.42970	0.00384
2432.37011	0.00446
2430.31053	0.00461
2428.25094	0.00439
2426.19136	0.00414
2424.13177	0.00389
2422.07219	0.00372
2420.01260	0.00360
2417.95301	0.00333
2415.89343	0.00314
2413.83384	0.00351
2411.77426	0.00427
2409.71467	0.00464
2407.65509	0.00433
2405.59550	0.00379
2403.53592	0.00344
2401.47633	0.00330
2399.41675	0.00327
2397.35716	0.00328
2395.29758	0.00319
2393.23799	0.00309
2391.17841	0.00318
2389.11882	0.00338
2387.05924	0.00346
2384.99965	0.00347
2382.94007	0.00365
2380.88048	0.00375
2378.82090	0.00345
2376.76131	0.00296
2374.70173	0.00264
2372.64214	0.00260
2370.58256	0.00266
2368.52297	0.00227
2366.46338	0.00140
2364.40380	0.00122
2362.34421	0.00210
2360.28463	0.00290
2358.22504	0.00312
2356.16546	0.00307
2354.10587	0.00284
2352.04629	0.00269
2349.98670	0.00284
2347.92712	0.00294
2345.86753	0.00279
2343.80795	0.00286
2341.74836	0.00343
2339.68878	0.00401
2337.62919	0.00408
2335.56961	0.00375
2333.51002	0.00345
2331.45044	0.00319
2329.39085	0.00301
2327.33127	0.00332
2325.27168	0.00406
2323.21210	0.00455
2321.15251	0.00451
2319.09293	0.00431
2317.03334	0.00428
2314.97376	0.00440
2312.91417	0.00430
2310.85458	0.00395
2308.79500	0.00389
2306.73541	0.00423
2304.67583	0.00443
2302.61624	0.00445
2300.55666	0.00462
2298.49707	0.00489
2296.43749	0.00499
2294.37790	0.00487
2292.31832	0.00479
2290.25873	0.00480
2288.19915	0.00457
2286.13956	0.00419
2284.07998	0.00404
2282.02039	0.00391
2279.96081	0.00374
2277.90122	0.00386
2275.84164	0.00387
2273.78205	0.00361
2271.72247	0.00363
2269.66288	0.00366
2267.60330	0.00360
2265.54371	0.00405
2263.48413	0.00466
2261.42454	0.00490
2259.36495	0.00499
2257.30537	0.00496
2255.24578	0.00466
2253.18620	0.00409
2251.12661	0.00353
2249.06703	0.00320
2247.00744	0.00292
2244.94786	0.00275
2242.88827	0.00323
2240.82869	0.00404
2238.76910	0.00421
2236.70952	0.00379
2234.64993	0.00368
2232.59035	0.00386
2230.53076	0.00395
2228.47118	0.00372
2226.41159	0.00322
2224.35201	0.00306
2222.29242	0.00303
2220.23284	0.00256
2218.17325	0.00199
2216.11367	0.00190
2214.05408	0.00265
2211.99450	0.00345
2209.93491	0.00323
2207.87533	0.00281
2205.81574	0.00284
2203.75615	0.00283
2201.69657	0.00278
2199.63698	0.00259
2197.57740	0.00254
2195.51781	0.00307
2193.45823	0.00358
2191.39864	0.00356
2189.33906	0.00305
2187.27947	0.00299
2185.21989	0.00389
2183.16030	0.00447
2181.10072	0.00428
2179.04113	0.00374
2176.98155	0.00261
2174.92196	0.00133
2172.86238	0.00100
2170.80279	0.00159
2168.74321	0.00252
2166.68362	0.00366
2164.62404	0.00469
2162.56445	0.00470
2160.50487	0.00307
2158.44528	0.00067
2156.38570	0.00047
2154.32611	0.00265
2152.26652	0.00365
2150.20694	0.00241
2148.14735	0.00106
2146.08777	0.00071
2144.02818	0.00108
2141.96860	0.00174
2139.90901	0.00238
2137.84943	0.00287
2135.78984	0.00268
2133.73026	0.00183
2131.67067	0.00165
2129.61109	0.00227
2127.55150	0.00273
2125.49192	0.00306
2123.43233	0.00326
2121.37275	0.00332
2119.31316	0.00373
2117.25358	0.00427
2115.19399	0.00420
2113.13441	0.00380
2111.07482	0.00373
2109.01524	0.00401
2106.95565	0.00392
2104.89607	0.00331
2102.83648	0.00312
2100.77690	0.00356
2098.71731	0.00377
2096.65772	0.00362
2094.59814	0.00353
2092.53855	0.00348
2090.47897	0.00323
2088.41938	0.00316
2086.35980	0.00361
2084.30021	0.00433
2082.24063	0.00506
2080.18104	0.00545
2078.12146	0.00520
2076.06187	0.00445
2074.00229	0.00352
2071.94270	0.00299
2069.88312	0.00284
2067.82353	0.00270
2065.76395	0.00292
2063.70436	0.00333
2061.64478	0.00342
2059.58519	0.00321
2057.52561	0.00288
2055.46602	0.00287
2053.40644	0.00314
2051.34685	0.00317
2049.28727	0.00283
2047.22768	0.00261
2045.16810	0.00255
2043.10851	0.00267
2041.04892	0.00338
2038.98934	0.00397
2036.92975	0.00371
2034.87017	0.00275
2032.81058	0.00197
2030.75100	0.00249
2028.69141	0.00380
2026.63183	0.00409
2024.57224	0.00327
2022.51266	0.00289
2020.45307	0.00318
2018.39349	0.00332
2016.33390	0.00287
2014.27432	0.00183
2012.21473	0.00146
2010.15515	0.00269
2008.09556	0.00371
2006.03598	0.00311
2003.97639	0.00182
2001.91681	0.00089
1999.85722	0.00080
1997.79764	0.00144
1995.73805	0.00250
1993.67847	0.00350
1991.61888	0.00378
1989.55929	0.00343
1987.49971	0.00290
1985.44012	0.00229
1983.38054	0.00203
1981.32095	0.00202
1979.26137	0.00189
1977.20178	0.00140
1975.14220	0.00099
1973.08261	0.00139
1971.02303	0.00185
1968.96344	0.00177
1966.90386	0.00149
1964.84427	0.00133
1962.78469	0.00170
1960.72510	0.00215
1958.66552	0.00156
1956.60593	0.00044
1954.54635	0.00034
1952.48676	0.00112
1950.42718	0.00151
1948.36759	0.00130
1946.30801	0.00109
1944.24842	0.00146
1942.18884	0.00205
1940.12925	0.00216
1938.06967	0.00237
1936.01008	0.00279
1933.95049	0.00306
1931.89091	0.00306
1929.83132	0.00291
1927.77174	0.00262
1925.71215	0.00227
1923.65257	0.00188
1921.59298	0.00127
1919.53340	0.00161
1917.47381	0.00228
1915.41423	0.00190
1913.35464	0.00157
1911.29506	0.00172
1909.23547	0.00215
1907.17589	0.00250
1905.11630	0.00242
1903.05672	0.00204
1900.99713	0.00196
1898.93755	0.00229
1896.87796	0.00275
1894.81838	0.00284
1892.75879	0.00261
1890.69921	0.00285
1888.63962	0.00278
1886.58004	0.00242
1884.52045	0.00271
1882.46086	0.00297
1880.40128	0.00290
1878.34169	0.00282
1876.28211	0.00261
1874.22252	0.00212
1872.16294	0.00202
1870.10335	0.00297
1868.04377	0.00356
1865.98418	0.00318
1863.92460	0.00294
1861.86501	0.00286
1859.80543	0.00279
1857.74584	0.00271
1855.68626	0.00261
1853.62667	0.00267
1851.56709	0.00289
1849.50750	0.00297
1847.44792	0.00294
1845.38833	0.00374
1843.32875	0.00405
1841.26916	0.00329
1839.20958	0.00327
1837.14999	0.00350
1835.09041	0.00329
1833.03082	0.00311
1830.97124	0.00327
1828.91165	0.00282
1826.85206	0.00259
1824.79248	0.00319
1822.73289	0.00319
1820.67331	0.00303
1818.61372	0.00310
1816.55414	0.00307
1814.49455	0.00309
1812.43497	0.00349
1810.37538	0.00373
1808.31580	0.00349
1806.25621	0.00330
1804.19663	0.00348
1802.13704	0.00399
1800.07746	0.00421
1798.01787	0.00384
1795.95829	0.00365
1793.89870	0.00432
1791.83912	0.00470
1789.77953	0.00404
1787.71995	0.00387
1785.66036	0.00427
1783.60078	0.00432
1781.54119	0.00443
1779.48161	0.00454
1777.42202	0.00429
1775.36243	0.00443
1773.30285	0.00520
1771.24326	0.00523
1769.18368	0.00488
1767.12409	0.00491
1765.06451	0.00499
1763.00492	0.00566
1760.94534	0.00576
1758.88575	0.00538
1756.82617	0.00538
1754.76658	0.00508
1752.70700	0.00543
1750.64741	0.00608
1748.58783	0.00598
1746.52824	0.00588
1744.46866	0.00609
1742.40907	0.00651
1740.34949	0.00677
1738.28990	0.00611
1736.23032	0.00666
1734.17073	0.00854
1732.11115	0.00828
1730.05156	0.00783
1727.99198	0.00831
1725.93239	0.00894
1723.87281	0.00943
1721.81322	0.00958
1719.75363	0.01092
1717.69405	0.01317
1715.63446	0.01437
1713.57488	0.01553
1711.51529	0.01764
1709.45571	0.02050
1707.39612	0.02392
1705.33654	0.02717
1703.27695	0.03048
1701.21737	0.03585
1699.15778	0.04055
1697.09820	0.04482
1695.03861	0.04965
1692.97903	0.05324
1690.91944	0.05712
1688.85986	0.06069
1686.80027	0.06474
1684.74069	0.07062
1682.68110	0.07485
1680.62152	0.07782
1678.56193	0.08170
1676.50235	0.08669
1674.44276	0.09121
1672.38318	0.09512
1670.32359	0.10040
1668.26401	0.10503
1666.20442	0.10845
1664.14483	0.11308
1662.08525	0.11800
1660.02566	0.12140
1657.96608	0.12388
1655.90649	0.12781
1653.84691	0.13417
1651.78732	0.13726
1649.72774	0.13832
1647.66815	0.14199
1645.60857	0.14500
1643.54898	0.14576
1641.48940	0.14628
1639.42981	0.14676
1637.37023	0.14765
1635.31064	0.14770
1633.25106	0.14515
1631.19147	0.14251
1629.13189	0.14018
1627.07230	0.13673
1625.01272	0.13269
1622.95313	0.12791
1620.89355	0.12196
1618.83396	0.11714
1616.77438	0.11259
1614.71479	0.10612
1612.65520	0.09979
1610.59562	0.09403
1608.53603	0.08783
1606.47645	0.08170
1604.41686	0.07650
1602.35728	0.07239
1600.29769	0.06908
1598.23811	0.06644
1596.17852	0.06435
1594.11894	0.06244
1592.05935	0.06065
1589.99977	0.05933
1587.94018	0.05867
1585.88060	0.05862
1583.82101	0.05895
1581.76143	0.05943
1579.70184	0.06052
1577.64226	0.06326
1575.58267	0.06590
1573.52309	0.06718
1571.46350	0.07012
1569.40392	0.07426
1567.34433	0.07736
1565.28475	0.08015
1563.22516	0.08285
1561.16558	0.08749
1559.10599	0.09375
1557.04640	0.09696
1554.98682	0.09979
1552.92723	0.10372
1550.86765	0.10760
1548.80806	0.11081
1546.74848	0.11340
1544.68889	0.11602
1542.62931	0.11917
1540.56972	0.12310
1538.51014	0.12496
1536.45055	0.12563
1534.39097	0.12815
1532.33138	0.13006
1530.27180	0.13062
1528.21221	0.13157
1526.15263	0.13242
1524.09304	0.13319
1522.03346	0.13491
1519.97387	0.13633
1517.91429	0.13786
1515.85470	0.13952
1513.79512	0.14002
1511.73553	0.13951
1509.67595	0.13881
1507.61636	0.13859
1505.55677	0.13608
1503.49719	0.13173
1501.43760	0.12855
1499.37802	0.12566
1497.31843	0.12157
1495.25885	0.11595
1493.19926	0.11034
1491.13968	0.10569
1489.08009	0.10035
1487.02051	0.09437
1484.96092	0.08903
1482.90134	0.08466
1480.84175	0.08074
1478.78217	0.07707
1476.72258	0.07413
1474.66300	0.07226
1472.60341	0.07110
1470.54383	0.06950
1468.48424	0.06869
1466.42466	0.06955
1464.36507	0.07039
1462.30549	0.07034
1460.24590	0.07144
1458.18632	0.07452
1456.12673	0.07658
1454.06715	0.07669
1452.00756	0.07707
1449.94797	0.07756
1447.88839	0.07718
1445.82880	0.07554
1443.76922	0.07324
1441.70963	0.07060
1439.65005	0.06810
1437.59046	0.06635
1435.53088	0.06394
1433.47129	0.06147
1431.41171	0.06055
1429.35212	0.06018
1427.29254	0.05996
1425.23295	0.06047
1423.17337	0.06139
1421.11378	0.06309
1419.05420	0.06532
1416.99461	0.06655
1414.93503	0.06766
1412.87544	0.06897
1410.81586	0.06963
1408.75627	0.06942
1406.69669	0.06872
1404.63710	0.06741
1402.57752	0.06556
1400.51793	0.06420
1398.45834	0.06316
1396.39876	0.06248
1394.33917	0.06247
1392.27959	0.06251
1390.22000	0.06318
1388.16042	0.06458
1386.10083	0.06540
1384.04125	0.06572
1381.98166	0.06624
1379.92208	0.06656
1377.86249	0.06647
1375.80291	0.06620
1373.74332	0.06547
1371.68374	0.06395
1369.62415	0.06222
1367.56457	0.06012
1365.50498	0.05787
1363.44540	0.05608
1361.38581	0.05424
1359.32623	0.05250
1357.26664	0.05142
1355.20706	0.05086
1353.14747	0.05059
1351.08789	0.05073
1349.02830	0.05135
1346.96872	0.05231
1344.90913	0.05349
1342.84954	0.05485
1340.78996	0.05642
1338.73037	0.05781
1336.67079	0.05875
1334.61120	0.05942
1332.55162	0.05974
1330.49203	0.05954
1328.43245	0.05881
1326.37286	0.05771
1324.31328	0.05638
1322.25369	0.05494
1320.19411	0.05364
1318.13452	0.05264
1316.07494	0.05207
1314.01535	0.05193
1311.95577	0.05195
1309.89618	0.05216
1307.83660	0.05258
1305.77701	0.05299
1303.71743	0.05336
1301.65784	0.05382
1299.59826	0.05436
1297.53867	0.05492
1295.47909	0.05542
1293.41950	0.05590
1291.35991	0.05635
1289.30033	0.05671
1287.24074	0.05708
1285.18116	0.05756
1283.12157	0.05814
1281.06199	0.05872
1279.00240	0.05940
1276.94282	0.06028
1274.88323	0.06131
1272.82365	0.06243
1270.76406	0.06358
1268.70448	0.06470
1266.64489	0.06587
1264.58531	0.06702
1262.52572	0.06804
1260.46614	0.06900
1258.40655	0.07002
1256.34697	0.07121
1254.28738	0.07260
1252.22780	0.07404
1250.16821	0.07541
1248.10863	0.07674
1246.04904	0.07811
1243.98946	0.07951
1241.92987	0.08084
1239.87029	0.08205
1237.81070	0.08317
1235.75111	0.08416
1233.69153	0.08483
1231.63194	0.08506
1229.57236	0.08486
1227.51277	0.08423
1225.45319	0.08311
1223.39360	0.08148
1221.33402	0.07941
1219.27443	0.07694
1217.21485	0.07421
1215.15526	0.07138
1213.09568	0.06849
1211.03609	0.06558
1208.97651	0.06278
1206.91692	0.06012
1204.85734	0.05749
1202.79775	0.05492
1200.73817	0.05253
1198.67858	0.05038
1196.61900	0.04849
1194.55941	0.04692
1192.49983	0.04567
1190.44024	0.04472
1188.38066	0.04400
1186.32107	0.04345
1184.26149	0.04326
1182.20190	0.04358
1180.14231	0.04435
1178.08273	0.04540
1176.02314	0.04648
1173.96356	0.04741
1171.90397	0.04818
1169.84439	0.04867
1167.78480	0.04885
1165.72522	0.04882
1163.66563	0.04867
1161.60605	0.04832
1159.54646	0.04771
1157.48688	0.04695
1155.42729	0.04603
1153.36771	0.04499
1151.30812	0.04391
1149.24854	0.04273
1147.18895	0.04154
1145.12937	0.04058
1143.06978	0.03980
1141.01020	0.03910
1138.95061	0.03844
1136.89103	0.03788
1134.83144	0.03744
1132.77186	0.03705
1130.71227	0.03673
1128.65268	0.03648
1126.59310	0.03633
1124.53351	0.03625
1122.47393	0.03618
1120.41434	0.03619
1118.35476	0.03630
1116.29517	0.03633
1114.23559	0.03630
1112.17600	0.03628
1110.11642	0.03634
1108.05683	0.03656
1105.99725	0.03678
1103.93766	0.03671
1101.87808	0.03631
1099.81849	0.03585
1097.75891	0.03544
1095.69932	0.03494
1093.63974	0.03462
1091.58015	0.03481
1089.52057	0.03540
1087.46098	0.03620
1085.40140	0.03723
1083.34181	0.03838
1081.28223	0.03948
1079.22264	0.04048
1077.16306	0.04143
1075.10347	0.04225
1073.04388	0.04292
1070.98430	0.04337
1068.92471	0.04349
1066.86513	0.04353
1064.80554	0.04377
1062.74596	0.04410
1060.68637	0.04449
1058.62679	0.04489
1056.56720	0.04500
1054.50762	0.04483
1052.44803	0.04441
1050.38845	0.04363
1048.32886	0.04259
1046.26928	0.04146
1044.20969	0.04040
1042.15011	0.03950
1040.09052	0.03875
1038.03094	0.03811
1035.97135	0.03754
1033.91177	0.03697
1031.85218	0.03654
1029.79260	0.03637
1027.73301	0.03617
1025.67343	0.03582
1023.61384	0.03576
1021.55425	0.03636
1019.49467	0.03759
1017.43508	0.03906
1015.37550	0.04023
1013.31591	0.04060
1011.25633	0.03995
1009.19674	0.03847
1007.13716	0.03660
1005.07757	0.03465
1003.01799	0.03276
1000.95840	0.03094
998.89882	0.02934
996.83923	0.02801
994.77965	0.02679
992.72006	0.02565
990.66048	0.02464
988.60089	0.02377
986.54131	0.02292
984.48172	0.02219
982.42214	0.02173
980.36255	0.02153
978.30297	0.02144
976.24338	0.02134
974.18380	0.02121
972.12421	0.02111
970.06463	0.02113
968.00504	0.02126
965.94545	0.02146
963.88587	0.02170
961.82628	0.02203
959.76670	0.02247
957.70711	0.02286
955.64753	0.02309
953.58794	0.02321
951.52836	0.02331
949.46877	0.02340
947.40919	0.02347
945.34960	0.02343
943.29002	0.02320
941.23043	0.02284
939.17085	0.02251
937.11126	0.02226
935.05168	0.02197
932.99209	0.02158
930.93251	0.02119
928.87292	0.02085
926.81334	0.02057
924.75375	0.02028
922.69417	0.01987
920.63458	0.01941
918.57500	0.01900
916.51541	0.01863
914.45582	0.01822
912.39624	0.01780
910.33665	0.01741
908.27707	0.01712
906.21748	0.01700
904.15790	0.01694
902.09831	0.01681
900.03873	0.01669
897.97914	0.01658
895.91956	0.01640
893.85997	0.01624
891.80039	0.01615
889.74080	0.01602
887.68122	0.01590
885.62163	0.01588
883.56205	0.01594
881.50246	0.01600
879.44288	0.01597
877.38329	0.01595
875.32371	0.01609
873.26412	0.01627
871.20454	0.01645
869.14495	0.01668
867.08537	0.01698
865.02578	0.01740
862.96620	0.01791
860.90661	0.01842
858.84702	0.01898
856.78744	0.01958
854.72785	0.02013
852.66827	0.02046
850.60868	0.02059
848.54910	0.02061
846.48951	0.02057
844.42993	0.02059
842.37034	0.02080
840.31076	0.02112
838.25117	0.02152
836.19159	0.02186
834.13200	0.02214
832.07242	0.02240
830.01283	0.02262
827.95325	0.02279
825.89366	0.02277
823.83408	0.02258
821.77449	0.02239
819.71491	0.02222
817.65532	0.02218
815.59574	0.02237
813.53615	0.02271
811.47657	0.02307
809.41698	0.02342
807.35740	0.02360
805.29781	0.02370
803.23822	0.02386
801.17864	0.02404
799.11905	0.02418
797.05947	0.02433
794.99988	0.02448
792.94030	0.02460
790.88071	0.02470
788.82113	0.02483
786.76154	0.02507
784.70196	0.02532
782.64237	0.02561
780.58279	0.02606
778.52320	0.02648
776.46362	0.02675
774.40403	0.02701
772.34445	0.02724
770.28486	0.02744
768.22528	0.02771
766.16569	0.02808
764.10611	0.02854
762.04652	0.02896
759.98694	0.02926
757.92735	0.02959
755.86777	0.03002
753.80818	0.03043
751.74859	0.03081
749.68901	0.03121
747.62942	0.03159
745.56984	0.03199
743.51025	0.03244
741.45067	0.03289
739.39108	0.03330
737.33150	0.03371
735.27191	0.03416
733.21233	0.03460
731.15274	0.03496
729.09316	0.03525
727.03357	0.03549
724.97399	0.03578
722.91440	0.03613
720.85482	0.03651
718.79523	0.03696
716.73565	0.03745
714.67606	0.03794
712.61648	0.03839
710.55689	0.03877
708.49731	0.03913
706.43772	0.03953
704.37814	0.04000
702.31855	0.04057
700.25897	0.04111
698.19938	0.04139
696.13979	0.04148
694.08021	0.04162
692.02062	0.04198
689.96104	0.04247
687.90145	0.04287
685.84187	0.04312
683.78228	0.04341
681.72270	0.04380
679.66311	0.04415
677.60353	0.04443
675.54394	0.04473
673.48436	0.04501
671.42477	0.04511
669.36519	0.04523
667.30560	0.04571
665.24602	0.04609
663.18643	0.04616
661.12685	0.04626
659.06726	0.04660
657.00768	0.04690
654.94809	0.04686
652.88851	0.04661
650.82892	0.04650
648.76934	0.04659
646.70975	0.04674
644.65016	0.04685
642.59058	0.04683
640.53099	0.04674
638.47141	0.04670
636.41182	0.04678
634.35224	0.04687
632.29265	0.04691
630.23307	0.04690
628.17348	0.04691
626.11390	0.04702
624.05431	0.04710
621.99473	0.04698
619.93514	0.04676
617.87556	0.04654
615.81597	0.04635
613.75639	0.04624
611.69680	0.04627
609.63722	0.04631
607.57763	0.04622
605.51805	0.04611
603.45846	0.04614
601.39888	0.04630
599.33929	0.04644
597.27971	0.04653
595.22012	0.04660
593.16054	0.04664
591.10095	0.04673
589.04136	0.04693
586.98178	0.04722
584.92219	0.04746
582.86261	0.04762
580.80302	0.04780
578.74344	0.04800
576.68385	0.04821
574.62427	0.04834
572.56468	0.04850
570.50510	0.04875
568.44551	0.04902
566.38593	0.04927
564.32634	0.04951
562.26676	0.04993
560.20717	0.05044
558.14759	0.05079
556.08800	0.05109
554.02842	0.05142
551.96883	0.05168
549.90925	0.05187
547.84966	0.05210
545.79008	0.05238
543.73049	0.05253
541.67091	0.05244
539.61132	0.05212
537.55173	0.05184
535.49215	0.05183
533.43256	0.05182
531.37298	0.05165
529.31339	0.05145
527.25381	0.05131
525.19422	0.05121
523.13464	0.05122
521.07505	0.05136
519.01547	0.05137
516.95588	0.05110
514.89630	0.05072
512.83671	0.05059
510.77713	0.05062
508.71754	0.05055
506.65796	0.05033
504.59837	0.05022
502.53879	0.05029
500.47920	0.05021
498.41962	0.05000
496.36003	0.04974
494.30045	0.04954
492.24086	0.04963
490.18128	0.04971
488.12169	0.04947
486.06211	0.04910
484.00252	0.04889
481.94293	0.04884
479.88335	0.04855
477.82376	0.04777
475.76418	0.04711
473.70459	0.04706
471.64501	0.04715
469.58542	0.04696
467.52584	0.04645
465.46625	0.04587
463.40667	0.04560
461.34708	0.04548
459.28750	0.04536
457.22791	0.04504
455.16833	0.04471
453.10874	0.04460
451.04916	0.04426
448.98957	0.04368
446.92999	0.04321
444.87040	0.04298
442.81082	0.04291
440.75123	0.04279
438.69165	0.04269
436.63206	0.04280
434.57248	0.04300
432.51289	0.04304
430.45330	0.04258
428.39372	0.04175
426.33413	0.04098
424.27455	0.04048
422.21496	0.04037
420.15538	0.04064
418.09579	0.04065
416.03621	0.04032
413.97662	0.04018
411.91704	0.04018
409.85745	0.04014
407.79787	0.03990
405.73828	0.03929
403.67870	0.03859
401.61911	0.03845
399.55953	0.03899
